,event id,width,length,azwidth,p_spot,p_track,p_worm
0,1,0.2893547860503617,10.567680042892269,9.926881016963028,0.06002607196569443,0.9005882143974304,0.03441255912184715
1,2,0.2541508996235206,14.589036785207258,43.52504157332345,0.0001825992512749508,0.7627071738243103,0.027208896353840828
2,3,0.518482515143323,7.17660670645772,0.3620023189001649,0.0006851895013824105,0.7595029473304749,0.17443586885929108
3,4,0.20383272023736293,10.06421003122306,8.341732357260753,0.04005412384867668,0.8270442485809326,0.0913546308875084
4,5,0.3601311517194911,9.196623297045916,18.891438228345248,0.004373811651021242,0.8925073742866516,0.05863136425614358
5,6,0.5108209277037644,5.219471721633815,0.2624444123256629,0.0008463799604214728,0.9123503565788268,0.08460450917482376
6,7,0.8937042860399733,7.980992353199677,3.590051642822788,5.1201020312419125e-08,0.0036746871192008257,0.9963253140449524
7,8,0.3606656071351047,10.76712986706655,45.10424860491986,0.003426766255870461,0.9626620411872864,0.03347928076982498
8,9,0.7071828079963631,13.218138656894267,62.2643500101112,0.001224082661792636,0.3669888973236084,0.6316058039665222
9,10,0.2613379559687398,13.257927444957454,17.460042627705068,0.060718562453985214,0.8702355027198792,0.06322617828845978
10,11,0.9040378007403376,12.47115811787118,52.7981331745305,0.3492787182331085,0.04074190929532051,0.6098947525024414
11,12,0.5573925828484443,9.345287404346166,42.28842821284472,0.00024872930953279143,0.9111647009849548,0.08114755898714067
12,14,0.3850181399164007,12.481271725938745,0.4513185948244359,0.00010563697287579996,0.9913801550865172,0.008398798294365406
13,15,0.3239820447834439,14.928304737998149,9.26103878471208,0.3117666840553284,0.2566688656806946,0.4227670133113861
14,16,0.3868205278618299,4.177349077902009,1.8829806948581085,7.351000385824591e-05,0.9787375926971436,0.011636488139629364
15,17,0.5250437939078989,7.0583408326651655,0.3053696186865622,3.0070908906054686e-05,0.9804306626319884,0.019359203055500984
16,18,0.4604751143401121,0.5110713092828564,0.2540803130536551,0.01500290259718895,0.6923316717147827,0.2405784875154495
17,19,0.4238305867436106,9.096587295475274,1.8222643304128103,0.0003523232589941472,0.990883767604828,0.008637022227048874
18,20,0.4546395946743699,16.47419122023555,0.7611413488283371,0.3597157001495361,0.4932810366153717,0.11931492388248445
19,21,0.2905373537263212,9.675758802058184,28.25126073427622,0.1417211890220642,0.3060433864593506,0.2925494611263275
20,22,0.3579421905796277,6.2085330614570085,3.1464315207500717,0.002624211134389043,0.933454692363739,0.0637698844075203
21,23,0.182376298412647,4.8125049384971295,0.5815607304896265,0.0015778590459376574,0.9555512070655824,0.0202837847173214
22,24,0.3820448449326552,11.429794109606734,2.9586134494740506,0.002676137024536729,0.5606932044029236,0.05396544933319092
23,25,0.5259886873705616,4.171340908820324,0.5821219559164188,0.027311233803629875,0.3165777027606964,0.6391955614089966
24,26,0.2643432254302522,13.181927506120006,26.537493311001437,0.0018514597322791813,0.8189862966537476,0.0986774042248726
25,27,0.6909241350899781,17.01134140070049,150.05630937139918,0.6403577327728271,0.08040296286344527,0.2792358100414276
26,28,0.37269237295493896,7.191258092496184,0.2044641918378625,0.002993415575474501,0.9789217710494996,0.01773172989487648
27,29,0.44454998009793145,10.782080242970114,24.143465060559503,0.00025234429631382227,0.94502055644989,0.04637274891138077
28,31,0.3359371927290881,12.031028801038639,6.035114611607673,0.03745793551206589,0.845933198928833,0.09850616753101347
29,32,0.5723433840345284,5.193285872337553,10.582005229030662,7.08968291291967e-05,0.9887835383415222,0.010857063345611095
30,33,0.8933769139054633,7.272585624546585,0.8902465805762225,0.09934601932764052,0.10601538419723512,0.794624924659729
31,34,0.8177380715959739,8.138826125091036,14.320745544922824,0.0013008192181587221,0.08453528583049774,0.9137772917747498
32,35,0.5617661506761519,12.702722581519804,7.14566578844984,0.03940730169415474,0.7034587860107422,0.2497588694095612
33,36,0.5835238352646105,9.200598248117721,4.545052026497407,5.318336479831487e-05,0.9387195110321044,0.0607091560959816
34,37,0.6571377846592312,6.201843565498617,4.859397413038653,0.006964373402297497,0.2684803009033203,0.7234461903572083
35,39,0.421743386174204,14.137831128020814,20.055569556132287,0.7178557515144348,0.21647971868515006,0.06435636430978775
36,40,0.3102930198256019,2.508952716854986,0.3387750048743715,0.0035650089848786592,0.8643760681152344,0.11872301250696182
37,41,0.3299992826974734,12.791110659268119,35.38009357716429,0.00020918673544656485,0.9802871346473694,0.01839897409081459
38,42,0.28836683215125103,9.207918697835824,19.31745736913349,0.002295776037499309,0.8640202283859253,0.0304251741617918
39,43,0.7388978951128088,13.433987279764777,15.478621861330144,0.00019366796186659485,0.2301253676414489,0.7694886922836304
40,44,0.2698595714957844,10.962022305198152,35.732265744888075,0.002325347159057856,0.9134825468063354,0.06385637819766997
41,45,0.4277183904225645,9.001590920155271,0.21259944104143189,0.003249727422371507,0.8678950071334839,0.10160865634679794
42,46,0.39523303993276254,9.024176904470492,3.8538128765105935,0.0001016538662952371,0.9710302352905272,0.028751268982887268
43,47,0.5775430312311839,6.388315767836107,17.060478033626385,0.0005369822029024364,0.8906102180480957,0.10685130953788756
44,48,0.6909812935911682,4.959071978901365,8.816477049626377,0.0034607199486345053,0.2515937983989716,0.7434131503105164
45,49,0.3810427987976863,4.688240277019199,0.4264003996635082,8.863798575475812e-05,0.929850697517395,0.015495626255869862
46,50,0.29516322712270004,12.198992079351525,26.184255097615534,0.0027513103559613232,0.9267276525497437,0.04980013146996498
47,51,0.34872155451535697,14.681056648328855,26.440328571676396,0.0007607823354192077,0.823805034160614,0.17332640290260315
48,52,0.3796085914579588,16.570778376221753,91.88101695107297,0.7563318610191345,0.1811838299036026,0.056144148111343384
49,53,0.1967721230793693,17.26240688566512,11.494465753186633,0.07781848311424255,0.824535071849823,0.0932815745472908
50,55,0.144736253931944,9.983458825681868,1.6121686615841857,0.01262167189270258,0.9249253869056702,0.05662107095122337
51,56,0.34627287029796194,3.4187510700470605,1.8120076393724664,0.23462195694446564,0.3610516786575317,0.4025988280773163
52,58,0.33502490032113424,9.272037042573738,0.3513978835301679,0.027396660298109055,0.03476548567414284,0.06488069146871568
53,59,0.4578739122352194,13.824157865810303,52.64129263947791,0.000299978710245341,0.8295037746429443,0.16409669816493988
54,60,0.7477267018947517,11.024820620699773,1.9863876954817383,0.0965762585401535,0.08413234353065491,0.819087028503418
55,61,0.3303793353097515,13.294700415131507,0.5299242265915758,0.4716145396232605,0.05964168906211852,0.03437549993395805
56,63,0.5312282144953143,7.181398948321878,1.8310701805287863,0.04219140112400055,0.13773038983345032,0.8198059797286987
57,64,0.4508468318725046,7.827164501130228,10.886409210011497,0.009135782718658449,0.9240819215774536,0.06284310668706894
58,65,0.550762226242465,8.816679275836174,11.265139590853233,2.6499590603634715e-05,0.9632558822631836,0.03579183667898178
59,67,0.5005385630508971,8.308493136295803,3.6107849899288036,0.002831082092598081,0.08103086054325104,0.9156022667884828
60,68,0.4956203650480247,0.7383648416099082,0.4013211125435533,-1.0,-1.0,-1.0
61,69,0.5361354403735358,8.016226211853423,0.8832740757034399,0.0006308867014013232,0.936790943145752,0.060906387865543365
62,70,0.5876220215140793,8.021542688363944,7.2708324616239475,0.007330978754907846,0.7347812652587891,0.2330263555049896
63,71,0.1613052919338246,9.786997974768065,0.2865069539230454,0.0009844871237874027,0.8247905373573303,0.04536382481455803
64,72,0.403768723588324,7.871885841836066,2.9690677656332776,0.7245027422904968,0.12428313493728638,0.14970624446868894
65,74,0.36480679397264,9.187101997070428,32.25833209143754,0.0014212310779839756,0.927626609802246,0.07085541635751724
66,75,0.4860452263509604,7.268637476622031,16.809563358480602,0.0014617827255278824,0.7478737831115723,0.1891648769378662
67,77,0.5979997467208868,8.631419617363898,1.408978782274101,-1.0,-1.0,-1.0
68,78,0.3746018745450863,10.276970825795162,3.0752119443486565,0.0038903173990547657,0.32486242055892944,0.6707054972648621
69,79,0.4620539339864373,5.068188839538967,0.21517428371962974,0.9046632051467896,0.08566799759864807,0.009449501521885395
70,80,0.6986916157290639,9.567920297965005,4.06847870310413,0.039161644876003265,0.8890948295593262,0.06789685785770416
71,81,0.18779664057724926,4.7759173731563225,1.115942636691342,0.0012101854663342235,0.8222298622131348,0.17618867754936218
72,82,0.44169220909260426,8.947229617460588,10.057172259062732,0.06258414685726166,0.8578277826309204,0.07531367242336273
73,83,0.3724910690786204,12.430500285409176,9.712885328379473,0.0037728673778474327,0.9365959167480468,0.05718884989619255
74,84,0.38684877818387103,8.612285549612363,1.9957498226596408,0.005585936363786459,0.96488356590271,0.02922535873949528
75,85,8.263335537710935,243.7320246365586,2577.107914240348,0.0009033781825564805,0.7713923454284668,0.22433488070964813
76,86,0.822018284995069,14.612049747638965,14.643068644371171,2.3138607502914965e-05,0.9645566940307616,0.035224255174398415
77,87,1.160914155406782,6.8294852472764624,28.335354996755466,0.04229927062988281,0.06915150582790375,0.8885324001312256
78,88,0.5373982412817961,7.463688110122602,0.8846089470696318,6.460774602601305e-05,0.006743967533111572,0.9931907057762146
79,89,0.685953079150108,7.287118219114245,2.6335979944067383,0.008094649761915207,0.6278075575828552,0.36083367466926575
80,90,0.6716122403182723,9.176189914015868,1.15428402708441,0.0020340990740805864,0.26888516545295715,0.7285372614860535
81,91,0.4075501752222471,10.295420569837674,37.020537754556585,0.00283701135776937,0.4501855969429016,0.5449932813644409
82,92,0.4864966659940548,6.802998115349093,3.79414031608885,0.00026238284772261977,0.9703834652900696,0.02919095568358898
83,94,0.396393174525666,8.730177853046294,8.289643372398436,9.907008461595979e-06,0.9821680784225464,0.017188871279358864
84,95,0.4574749850468502,9.636409714447863,3.5068329515949417,0.00014100807311479002,0.9732829332351683,0.023700330406427383
85,96,0.2902733866498025,5.776205743929291,1.3246120432038402,0.04618222638964653,0.7428503036499023,0.20941677689552307
86,97,0.4377295663547489,9.220547894622117,5.7760455653505565,0.7519731521606445,0.16627825796604154,0.07169334590435028
87,98,0.17127117192768496,3.3790633044604843,2.768446878099511,0.007901456207036972,0.7759591937065125,0.2160980850458145
88,99,0.7959317679090246,14.578132662767036,116.86551787366709,0.011845562607049942,0.8074871897697449,0.12178857624530792
89,100,0.4096879183588481,5.513654410878925,2.7319136130405246,0.0026366773527115588,0.0073029701597988605,0.9900586009025574
