,event id,width,length,azwidth,p_spot,p_track,p_worm
0,1,0.4929593917912898,7.434831210774251,20.89115703365023,0.0033384149428457017,0.2377583086490631,0.7574767470359802
1,2,0.6099128238946873,11.711627240623304,48.86643044343037,3.0589653761126097e-06,0.010569139383733273,0.9894074797630308
2,3,0.25244254654313386,6.110392757969332,13.677809728054646,0.004319042433053255,0.7625716328620911,0.10973566770553587
3,4,0.4280790240605373,2.7152336392817675,2.9995209478027016,0.012753254733979702,0.8571182489395142,0.1282995492219925
4,5,3.158301650536143,5.422983737658226,10.488512139549076,0.0007700804271735251,0.0191378016024828,0.9800063967704772
5,7,0.4236000088121025,4.7059021603302025,7.232469406688244,0.017787108197808266,0.8194195032119751,0.14895768463611606
6,8,0.2791758955546541,7.035447798738319,18.938559745869828,0.007605478633195163,0.10382582247257233,0.31026533246040344
7,9,0.7411162896847246,10.34103378839034,38.62092048743361,0.0818137601017952,0.5121452808380127,0.3035600185394287
8,10,0.4269661326943278,3.5733304647791986,4.724665872575085,0.0045352503657341,0.2039105594158173,0.7911239862442017
9,11,0.4276983580716746,7.310637347207782,19.288400861564856,0.03189672529697418,0.2132434397935868,0.6226848363876343
10,12,0.3459168861109249,7.343794026977693,21.008932491833736,0.02355658821761608,0.5056854486465454,0.4205474853515625
11,13,0.3075711301630671,2.8815127215736847,2.9962722441975216,0.012272708117961884,0.6791499257087708,0.3013967573642731
12,14,0.4854518147404158,0.4998937992959891,0.2454005805665006,0.00646405853331089,0.8068773746490479,0.14271537959575653
13,15,0.4269766661409706,7.932118939970814,24.977602467353567,0.0940772220492363,0.402517706155777,0.3625369966030121
14,16,0.3769464013701464,4.464330394021532,7.530428322745879,0.007461621426045894,0.5408349633216858,0.129689022898674
15,17,0.4955332122493954,6.284351080505522,14.753736825380981,0.003353769890964031,0.8835425972938538,0.11005645245313644
16,18,2.157918643755777e-05,7.929756642070124,23.342671693527237,0.0009285765700042248,0.1800343096256256,0.8103806376457214
17,19,0.5438398300095517,4.377393184992124,6.972676026376259,0.0999300479888916,0.731911838054657,0.12089159339666368
18,20,0.44441665208626596,6.020211141343952,13.65183078512835,0.003629577113315463,0.7187413573265076,0.25731176137924194
19,21,0.4938031734321161,8.22421862041795,24.498625713051357,0.23619766533374786,0.4072256088256836,0.3507164120674133
20,22,0.6877152245449741,8.054380545142921,23.369693316744065,0.03209792822599411,0.31297236680984497,0.6272555589675903
21,24,0.4752244404073098,9.953035871293539,37.29066070573669,0.00031568456324748684,0.05265352502465248,0.9470203518867492
22,25,0.5887671396060327,11.11806029036932,43.669376451178934,0.9447619915008544,0.02643839828670025,0.02834572456777096
23,27,0.4718277250688635,14.27087624744482,72.54473414632842,0.24048669636249545,0.5127009153366089,0.24389956891536715
24,28,1.4589672547307206,3.629121807385245,6.0279219529519965,0.3504306674003601,0.4033267796039581,0.20902520418167114
25,29,0.3240794573926887,6.97085762393086,18.041549308341892,0.006848662160336971,0.8690108656883241,0.10112156718969344
26,30,0.4802696746305108,6.2720088312358095,13.874122731079213,0.011596350930631159,0.7523578405380249,0.22081537544727325
27,31,10.95712262523749,378.97468084450935,28920.34408612314,0.0021848531905561686,0.009289599023759363,0.988477110862732
28,32,0.4867915186365969,4.8903746460478486,9.113767311182238,0.04054374247789383,0.587935209274292,0.35594919323921204
29,33,0.4537888816061806,7.399867941179492,20.51162836945288,0.1630736142396927,0.1327420324087143,0.6995176672935486
30,34,0.4827200996910368,1.6396153082817837,1.3105457937443237,0.07215962558984756,0.6758043169975281,0.2323847562074661
31,35,0.4321760990464866,7.5828891246563614,19.53404302375001,0.011632585898041723,0.8164414167404175,0.1678602248430252
32,36,0.3379423669370381,12.259722992940464,53.35253480957241,0.011364025063812731,0.4238027930259705,0.5632837414741516
33,37,0.4538977205410962,3.7992614871834793,5.616389596887528,0.02230017259716988,0.8441209197044373,0.1113107204437256
34,38,0.5329123932828225,9.714156821920016,34.29747464638674,0.029716392979025837,0.8337244987487793,0.11781959980726242
35,41,0.3596297158182895,3.2947588304147284,3.692443592810252,0.1203775480389595,0.3319452702999115,0.5406033992767334
36,42,0.7124780461792249,13.906367750177994,68.12784457775626,0.1011425331234932,0.34389159083366394,0.5544294714927673
37,43,0.3952713599010245,8.90603403490042,28.445837016485505,0.008718902245163921,0.11315015703439713,0.8778491616249084
38,44,0.4738189789614233,4.613814564501707,8.30222199544631,0.13713224232196808,0.6655194163322449,0.1373251974582672
39,46,0.4683255396194164,8.947134461648773,29.432062958959797,0.003673219354823232,0.8967885971069336,0.06033974140882493
40,47,1.6964586891072937,4.237343080302119,9.625549869630788,0.0007449816330336034,0.7418491244316101,0.05609656497836113
41,48,0.4889797919477136,0.505814383100003,0.2555816454502147,0.8136650919914246,0.011435134336352348,0.17488816380500793
42,49,0.5271045311832351,1.4132562658722874,0.9700206805419692,0.01302617322653532,0.6384140849113464,0.26671302318573004
43,50,0.38027726543485096,10.33198187589945,40.52117245273497,0.00461913226172328,0.8887271881103516,0.09752937406301496
44,51,0.4336257033820817,9.230249700014763,31.321715282868503,0.0495159924030304,0.0043780789710581285,0.021210029721260067
45,53,0.6091066599158271,10.26524533651191,38.04810126236485,0.003057070076465607,0.8663830161094666,0.12528735399246216
46,54,0.4858723251963127,0.6109502272185953,0.25037362629291743,0.34152090549468994,0.17127303779125214,0.4867835640907288
47,55,0.6847630828905211,12.38854742838232,54.2732652566032,0.05594873800873757,0.2126638442277909,0.16499710083007812
48,56,0.22521842095533665,9.134189499142794,30.292286468238512,0.0841321051120758,0.18239156901836395,0.7225275039672852
49,57,0.5961624335193257,4.484970223020653,7.341627291183159,0.07781071215867996,0.5112282037734985,0.33490753173828125
50,58,0.5200601658781979,9.91243030638351,35.465741949577044,0.01775699108839035,0.7314637899398804,0.22472913563251493
51,61,0.6155726498310589,6.610763784799229,17.120047257264332,0.09180110692977904,0.723231315612793,0.1628233641386032
52,63,0.4669706708082986,4.515008847868371,7.332826135946858,0.15766164660453796,0.052212484180927284,0.7895963788032532
53,64,0.47731994044561893,6.126317180374889,13.476731764575536,0.8470693230628967,0.0485050193965435,0.09788772463798524
54,65,0.5896388906959563,8.696434840883631,27.388950950247345,0.7781227827072144,0.06526169180870056,0.15638208389282227
55,66,0.4927472217819511,2.2171744033801475,1.8260016824839964,0.2205616980791092,0.4304731488227844,0.3458593487739563
56,67,0.3969980687637842,11.922491665729988,50.51958410283271,0.0003859135613311082,0.171016663312912,0.8274399042129517
57,68,0.499897058006865,4.458664706311136,7.367036095356696,0.0818546861410141,0.3837501406669617,0.5171828269958496
58,69,0.3633127256472993,12.302988528028202,54.273848133527295,0.01269691437482834,0.10574215650558473,0.04114555567502976
59,71,0.2725361894918625,7.722328367043164,20.78107804322467,0.005376454442739487,0.8703118562698364,0.11246316879987717
60,72,1.5258789062254493e-05,5.379729312326165,10.629281108537947,0.006460595875978471,0.09432228654623033,0.8976722359657288
61,73,0.6431477607602121,7.26480269796351,19.439787359005447,0.9342687129974364,0.02436358667910099,0.017179127782583237
62,74,0.5256649413800217,13.457019489634915,61.11981880603384,0.12384896725416185,0.5575082302093506,0.3080570697784424
63,75,10.10088956963576,387.961942758478,50344.80459389974,0.00010542061500018464,0.8567808270454407,0.13758891820907593
64,76,0.5455015727267762,9.567042837657578,34.076209846863435,4.098961614573682e-09,0.0003029043728020042,0.9996970891952516
65,77,0.5864107194634418,10.083902984351923,37.8561864959539,0.2069101929664612,0.26610222458839417,0.413222461938858
66,79,0.2932445293738574,9.548246301244623,32.14453277928325,0.0181012824177742,0.5482870936393738,0.2207970470190048
67,80,0.31756227847334617,1.59772843502374,1.0597711750700762,0.2488517761230469,0.1229495108127594,0.6261991262435913
68,81,0.5963659583365043,7.684683032284213,21.66235093723682,0.022825522348284718,0.4061274826526642,0.5525404810905457
69,82,0.3570636493755945,7.4939255010070385,19.957301611572444,0.03335369005799293,0.8241721391677856,0.14168395102024078
70,83,0.8178907089788278,4.849970057423481,8.943979603032409,0.6865859031677246,0.18026143312454224,0.13021686673164368
71,86,0.4656509315595657,8.165307606093267,23.299411727187557,0.011761457659304142,0.8796685338020325,0.10756085813045503
72,87,0.4835775625351528,6.48050618360083,15.115993735327626,9.412831786903553e-06,0.007132283411920071,0.992781102657318
73,88,0.3973180975053224,9.188158660938985,30.638414362427106,0.07874967157840729,0.7043593525886536,0.200607568025589
74,89,0.5968008406685683,3.2390329961301565,3.9519014175183815,0.0004726694896817207,0.6474646329879761,0.3483559489250183
75,90,0.4982815317872824,7.356969538465954,19.604356442807926,0.048110682517290115,0.2787333130836487,0.4849665462970734
76,91,0.6030472392726338,10.254780772781734,38.28872957905174,0.004737169947475195,0.17784176766872406,0.8151735663414001
77,92,0.3911557872951563,7.504149505998497,20.43621017732631,0.4076607525348663,0.08503516763448715,0.061119463294744485
78,93,0.2662756938777118,9.449209363654528,31.27494963713297,0.11089583486318587,0.7404718995094299,0.128707155585289
79,94,0.4998704354515061,5.72735472084104,12.213166020995367,0.2870078980922699,0.3739359974861145,0.329701691865921
80,95,0.42504984355716574,10.951959296888077,45.72501501238105,1.0106617992278187e-05,0.03524504974484444,0.9646899104118348
81,96,1.3716242385432624,9.105188110558972,35.909872157984445,0.00020796312310267243,0.9359519481658936,0.060703262686729424
82,98,2.4191193501223838,68.22922130310046,4072.3572971308495,0.0009050489752553404,0.0092891501262784,0.9897688627243042
83,99,0.6313023177866435,2.8865190077763527,3.1826346585027294,0.20110179483890533,0.01952152326703072,0.06568344682455063
84,100,0.6276117351411112,8.920106724323055,28.711155264266075,0.008835430257022379,0.7444050312042236,0.2416781634092331
