,event id,width,length,azwidth,p_spot,p_track,p_worm
0,1,0.5405578791542236,1.7851190631438991,1.3257539570817896,0.003949870821088553,0.911751627922058,0.08395038545131682
1,2,0.4367881519335359,2.634805676819396,2.173906790688546,7.193216879386455e-05,0.9486340880393982,0.05125326290726662
2,3,0.5407696265948815,3.049014102399897,3.1937426177428745,0.0002156317059416324,0.376895010471344,0.6227766871452332
3,4,0.4700654328831451,2.630829907473751,2.1761140678487085,0.0013324010651558638,0.8374001383781433,0.1607876420021057
4,5,0.4454005073654752,1.0734484145633387,0.5963116238282746,0.016264658421278,0.6772186756134033,0.3056930601596832
5,6,0.40961626084701264,1.5316776738289446,0.8738993363161505,0.003378329798579216,0.6625291705131531,0.33333447575569153
6,7,0.39769014154406745,2.326215217196899,1.7331501363979622,0.0007207819726318121,0.7735750079154968,0.2254066318273545
7,8,0.6658957602083297,2.8261982134340875,2.744724092529676,6.0693331761285656e-05,0.9769347906112672,0.02299599908292293
8,9,0.5975893013500035,4.477989746056171,6.074728281770098,2.361582846788224e-05,0.5568379759788513,0.4431253671646118
9,11,0.5968023330509515,3.541916511916284,3.9770419047447145,0.04340546205639839,0.5884112715721129,0.36115139722824097
10,12,0.4720088550628605,4.133560024094681,5.019464860250748,0.0002630768285598606,0.5102521777153015,0.4892858266830444
11,13,0.4086888491693327,3.776139387720793,4.7002885571813735,2.857366598618682e-05,0.8511182069778442,0.1488059014081955
12,14,0.6592843347567944,1.9942926406313808,2.19103228123012,4.338630969868973e-05,0.8248971104621887,0.17496798932552338
13,15,0.5552968461151382,3.4389633932978434,3.7417693898460604,4.376899596536532e-05,0.02049268595874309,0.9794609546661376
14,16,0.5910530487868371,0.9028685070218464,0.5123423614521739,1.2266281146366964e-06,0.980160653591156,0.0198363084346056
15,17,0.1860063144582524,1.3122556741821358,0.7295726952070392,0.006369022186845541,0.15670233964920044,0.8364073038101196
16,18,0.1451773468058947,3.9504826146494536,5.241411994996512,0.00023859640350565322,0.8170026540756226,0.18235960602760315
17,19,0.4722107869982022,2.1149423074833007,1.5134362057974708,0.0022229794412851334,0.7276052236557007,0.2668740749359131
18,20,0.6531303364443183,3.8437485575121615,4.677764852001581,0.0004016039601992816,0.6112949848175049,0.38818320631980896
19,21,0.4921336160687727,2.100073330355317,1.4325637262978947,1.593715751369018e-05,0.9341079592704772,0.06586714833974837
20,22,0.37579873708675055,2.2857428572733416,1.3374299741495903,0.001551092485897243,0.6443343758583069,0.3539131283760071
21,23,0.20463829156638988,3.1128503844287243,2.6822019640153387,0.0005293917492963374,0.9125731587409972,0.08557934314012527
22,24,0.634229071065092,3.3633714392520155,3.777413461590228,0.00013596487406175584,0.844015896320343,0.155781090259552
23,25,0.4405695982637968,0.7142553736538342,0.28889067488752945,0.0002108760527335108,0.504452645778656,0.4951934516429901
24,26,0.35887320331004163,3.612164494761266,3.7636147453258895,0.009790167212486269,0.6122944355010986,0.377086877822876
25,27,0.3724726490991057,2.1786321276192786,1.5576236012361364,2.155638867407106e-05,0.9209097027778624,0.07895719259977341
26,28,0.3744131200380865,1.260577768781486,0.6377543339864402,0.0013476554304361346,0.940403938293457,0.05803715437650681
27,29,0.42341013637810665,1.2628155333409758,0.6066147499477218,0.00016504264203831553,0.7749947905540466,0.2246033251285553
28,30,0.1625570050703394,3.92430507779241,4.463804880125664,0.0012196156894788144,0.7569066286087036,0.2412848919630051
29,31,0.5856777838878198,2.9280958547074736,2.7319946435200166,6.100118116592057e-05,0.8392584323883057,0.16055412590503693
30,32,0.3157497343879498,1.0631179979574454,0.4044651556692824,0.001513041672296822,0.6672231554985046,0.3309652805328369
31,33,0.3660638492207625,4.506612138491909,5.90342715220759,0.00026735910796560347,0.7959255576133728,0.20328904688358307
32,34,0.6746276995485379,2.7584510008316943,2.7942177667236088,8.028923730307724e-06,0.9128839373588562,0.08708253502845764
33,35,0.5564204216782548,2.3529616985342003,1.78336834561387,7.449225813616067e-05,0.8701208233833313,0.12974593043327332
34,36,0.7247379463772191,4.001697722921154,5.298129920200117,0.000723275647033006,0.9358138442039492,0.06321340054273605
35,37,0.6476119663538478,3.1517312212582103,3.203182282280334,1.0181185643887147e-05,0.14521023631095886,0.854777991771698
36,38,0.6277349194407622,1.9209084815761719,1.2830533302560791,0.0016918788896873591,0.30467700958251953,0.6933056116104126
37,39,0.2873465147059826,2.401798381968101,1.6657842294170608,0.007842893712222576,0.8658835291862488,0.1254141479730606
38,40,0.5763338592458873,3.5081779037246767,3.790448191257754,0.00033371453173458576,0.9104596376419068,0.08892548084259032
39,41,0.4472013161949381,3.1256225077312796,3.0048678504379582,8.301184425363317e-05,0.8474087119102478,0.15246206521987915
40,42,0.4793360349371426,1.923013211733854,1.3792409979798748,1.2537319662442314e-06,0.9849041700363159,0.015089165419340134
41,43,0.5124579457508825,3.648406505779466,3.971043562918608,0.003387083997949958,0.9295603036880492,0.06679677963256836
42,44,0.373655312764183,2.6186355527325684,2.185641199138509,1.761365751917765e-06,0.9699684381484984,0.030025081709027287
43,45,0.4184319001365167,3.9572247904933295,4.692961959327034,0.0003631239815149456,0.7717816829681396,0.2277044802904129
44,46,0.4577049505919755,2.7248416366960093,2.458243237834405,8.303548383992165e-06,0.9261322617530824,0.07383944094181061
45,47,0.20971420282137573,0.8333035049952576,0.19342719170028647,1.7509310055174863e-06,0.9777750372886658,0.022215107455849648
46,48,1.90260897402715e-05,5.755540105130037,9.953045790323918,0.059288907796144485,0.4489438533782959,0.4733772277832031
47,49,0.4535168720873976,2.961044419904553,2.6233426542945057,0.0005147947231307626,0.785983681678772,0.2116541713476181
48,50,0.5368607515632627,3.3821986233314036,3.7090614628821212,9.155392763204871e-05,0.8226408958435059,0.1771400272846222
49,51,0.4385713205213302,1.972446647025416,1.238643595870036,4.719815024145646e-06,0.9678390026092528,0.032151248306035995
50,52,0.4176000349852091,2.4216241065863544,1.6935635978487953,0.0005084015429019928,0.956234574317932,0.043159112334251404
51,53,0.3358533956569256,4.151187422671602,5.083751178225191,0.00018015704699791968,0.9011458158493042,0.09854795038700104
52,54,0.5429639048225958,4.60665897175092,6.8941502455187065,2.282690547872335e-05,0.8923392295837402,0.1075340062379837
53,55,0.6086329424864033,1.447054539154292,0.9498318788100258,2.6155414616368944e-06,0.9088375568389891,0.09115305542945862
54,56,0.4624872076394218,1.863776459067635,1.3679446002769282,0.21737422049045568,0.5885321497917175,0.19250446557998652
55,57,1.0372159950401891,707.3007666401418,63889.94856096423,0.03160026669502258,0.6081455945968628,0.3478347957134247
56,58,0.5769877413060484,1.5081946635636,0.9634805437836406,0.00047498248750343913,0.2197449803352356,0.7795836925506592
57,59,0.5076169594503589,1.3831735288047282,0.8198651817099276,0.02296501025557518,0.8133384585380554,0.16201411187648773
58,60,0.4537720362977317,1.7415286813534314,1.205152017097773,0.006697546225041151,0.6244547367095947,0.3683024048805237
59,61,0.4890485177470114,1.4908228138637278,0.8281922474973126,0.0006919858860783278,0.9335629940032959,0.06558495759963989
60,62,0.19618021019218854,1.4115105843177411,0.7981863424977913,0.002656909404322505,0.7890258431434631,0.207605704665184
61,63,0.4188977515585388,2.835323296926493,2.6627865024304844,0.0005528776673600078,0.5589810609817505,0.44024330377578735
62,64,0.4583910468131591,2.783186216506585,2.4929821511313697,0.0001863923971541226,0.9602559804916382,0.03941568359732628
63,65,0.3919628566089743,2.695695792020309,2.4147951520006306,0.00042459805263206363,0.9537713527679444,0.04575985297560692
64,66,0.4050155856209455,2.474838946061808,2.0164228054250315,0.0017780039925128226,0.9047154784202576,0.09242232888936996
65,67,0.3879035969558043,3.1214028859173704,2.7655998927145893,2.0501187464105897e-05,0.9621382355690002,0.037816036492586136
66,68,0.7379833755515277,2.3600956421333024,1.9416074307881768,0.00014328678662423044,0.939464807510376,0.05956459417939186
67,69,0.7091207452296985,3.5904833365166002,4.3439896844437715,0.005062353331595659,0.3449738025665283,0.6496283411979675
68,70,1.8248460268334383,455.6070820918629,11991.367911907924,9.480051085120068e-05,0.7652320265769958,0.2346141487360001
69,71,0.43997016298248254,3.334804734723261,3.5427876099065316,0.33028537034988403,0.36687955260276794,0.30198895931243896
70,72,0.4166871779366568,3.332041170229913,3.3428657791553253,9.203055378748104e-05,0.8775280117988586,0.1223038211464882
71,73,0.5423627347884434,3.8551983739301625,4.965856173403921,6.476235284935683e-05,0.9599584937095642,0.039886251091957085
72,74,0.5885482413465135,1.299966055933377,0.7626129972563913,8.231430547311902e-05,0.6413763761520386,0.35847920179367065
73,76,0.6883001926816572,2.457061808702645,2.2198834821103626,0.021305419504642487,0.4558975100517273,0.5213947892189026
74,77,0.6086995364377031,3.640003221457997,4.1565785869560345,0.049942053854465485,0.20353662967681885,0.5987472534179688
75,78,0.5432533114146428,1.3400501427710099,0.7369923910657602,0.0117780277505517,0.24102783203125,0.746816873550415
76,79,0.4074285735536973,2.8521979579051693,2.537323816682437,0.00015500174777116632,0.3857754766941071,0.6139352321624756
77,80,0.5067974302997772,5.129076000888943,8.194782747385316,0.007360201328992844,0.8756078481674194,0.11664514988660812
78,81,0.4865505931550138,3.823659416742801,4.020861598233592,0.00012145397340646014,0.954912006855011,0.04493647813796997
79,82,0.3942401511781599,2.6382102700095387,1.8883005365518888,2.691175495783682e-06,0.8636951446533203,0.13629473745822904
80,83,0.4250905315615726,3.4964119475484816,4.198045494422204,7.53236745367758e-05,0.6413766741752625,0.3583409786224365
81,84,0.30237016046383763,3.774043773688288,4.6393683882929535,0.0010703802108764648,0.8576768636703491,0.13534194231033325
82,85,0.4591671019805605,1.301673433630453,0.5792129686937875,0.0002493548672646284,0.6927010416984558,0.30673450231552124
83,86,0.5896816722293067,1.4772237282167546,0.9177649497827346,0.00025371095398440957,0.8221815228462219,0.17694547772407532
84,87,0.3227206491766768,1.6888151861971197,0.7908511933044043,0.00605151941999793,0.7249369025230408,0.2684972286224365
85,88,0.3159695923803925,5.200791295911084,7.543807826062093,0.455026239156723,0.4005747735500336,0.1430862545967102
86,89,0.4652362350637748,1.6344407675893813,0.8546842081990345,0.00010216518421657383,0.8619449138641357,0.13774190843105316
87,90,0.2746515884136416,1.5850917302086749,0.9918664229436902,7.592057500005467e-06,0.7242863178253174,0.2756786644458771
88,91,0.5606331905239171,2.0734451309609265,1.5026745794853091,0.014377644285559653,0.5621361136436462,0.4227621257305145
89,92,0.5527948124753282,1.8535910637932358,1.0635471213154637,0.0011396956397220492,0.9097324013710022,0.08900082856416702
90,93,0.6779293337959457,2.95479888389332,3.1003925388417546,0.04180886596441269,0.5493550896644592,0.40702441334724426
91,94,0.4479837878174029,2.2981043099049114,1.724163856130426,0.06789456307888031,0.7730769515037537,0.1570354402065277
92,95,0.5959367384151276,4.9770202841004885,8.003436975238465,0.002585320733487606,0.7767025232315063,0.2201395332813263
93,96,0.4291696233114085,3.5148728361600194,3.6265674227470512,0.003637747373431921,0.9108608961105348,0.08418082445859909
94,97,0.39364349013826455,3.394060553150988,3.961820103423681,1.0184614438912833e-05,0.7772940397262573,0.22266937792301172
95,98,0.5575343550446598,3.6529109474669874,4.488576151067933,7.51706011214992e-06,0.943999171257019,0.055969927459955215
96,99,0.4188956164160475,4.696076787772264,6.4475840853048245,6.389890040736645e-05,0.8915248513221741,0.10835108160972597
97,100,0.31753167907765345,0.8007505715158586,0.2966766041577101,1.792714783732663e-06,0.9627345204353333,0.03726128116250038
