,event id,width,length,azwidth,p_spot,p_track,p_worm
0,1,0.4081470478265594,1.387631225027515,0.3055400121351998,0.07067467272281648,0.6879048347473145,0.2286079674959183
1,2,11.317733777526062,304.09316247444167,47280.77876546021,1.3802857665723423e-06,0.03159268200397492,0.9684038758277892
2,3,0.4457638988148272,2.4822647547041536,6.114436047497754,0.6514202356338501,0.1732957363128662,0.14180809259414673
3,4,0.8293184222910956,2.962690352092538,4.567520731913253,0.00013638568634632975,0.008331836201250553,0.9915308952331544
4,5,0.4201778839825785,2.0256074760079708,4.098467752135562,0.9177827835083008,0.04211300984025002,0.03984397277235985
5,7,0.5023999433604823,1.1727449732894075,1.3260448171392054,0.1823515146970749,0.3264114856719971,0.3036930561065674
6,8,0.2987119468522838,1.4110937136500692,0.1644641974324977,0.9967547059059144,0.002003503730520606,0.001234225812368095
7,10,0.2935595063800932,1.162487539900407,0.5012400690115034,0.005776465870440006,0.7994869351387024,0.19281314313411715
8,11,0.20266177766468932,5.3504182144633035,20.369911681861726,0.015845492482185364,0.7442465424537659,0.23764364421367645
9,13,0.5122980939049108,4.034968230056586,6.630519843918305,0.0030579674057662487,0.8635472059249878,0.13087984919548035
10,14,0.3923354343915901,2.2278563482873643,2.2930169243158387,0.00014031912724021822,0.8725402355194092,0.1272101253271103
11,15,0.3836491957015197,1.9250977646663137,2.9295410111820304,0.013869098387658596,0.8438870906829834,0.1408849060535431
12,16,0.7248093570714959,6.634018476475654,0.5371014346573388,0.590835690498352,0.2692437469959259,0.13561756908893585
13,17,0.7159757898222159,3.1902936635350443,2.837356723226581,3.688461220008321e-05,0.16289542615413666,0.8369172215461731
14,18,0.3898027894828358,4.454265171263981,0.7173847857013367,0.00024121440947055817,0.2236609905958176,0.7760472893714905
15,19,0.2671112189676305,3.117404743255152,9.632737249055143,0.00030805551796220243,0.558982789516449,0.4404812157154083
16,20,0.2934486274995089,3.418537173218384,3.0285789810677546,0.02639954537153244,0.4289414882659912,0.5440842509269714
17,21,0.3465845743054174,4.484985700033926,19.973020423306984,0.0001662730792304501,0.7793925404548645,0.22009722888469696
18,22,0.3530937417492796,2.399100935477366,0.126959456141544,0.004606535658240318,0.8117278814315796,0.18264856934547424
19,23,0.4671024214410906,1.1659126026334514,0.7514186552554334,0.00012795104703400284,0.9497350454330444,0.050078313797712326
20,24,0.4887503087336408,2.4067991529838766,4.936907784886109,0.005216185469180346,0.7323117256164551,0.2612361013889313
21,25,0.0738305964372549,2.5709309303671857,2.113310924350275,0.04918813705444336,0.5293420553207397,0.4049948751926422
22,26,0.43916909915057534,2.7254902086644752,0.20595617067755795,0.0006375410011969508,0.8893091082572937,0.10710319876670836
23,27,0.2344105851780621,1.7795197470583055,1.2033105912039608,5.162648085388355e-05,0.9641667008399964,0.03385314717888832
24,28,0.2093159683524196,1.54379035721359,2.1784560864568534,0.0002365067630307749,0.7232494950294495,0.2764178216457367
25,29,0.7878124157185418,2.7627072429284736,6.1839575708124075,0.010591369122266771,0.7230464220046997,0.2660344839096069
26,30,0.8272441576696189,2.732302523865493,6.031405250017125,0.0009492065873928367,0.5905537009239197,0.4082420468330383
27,31,0.4044558515025163,2.0600433069057087,0.3619636750423135,0.0022695718798786397,0.2386336177587509,0.7589774131774902
28,32,0.6977871506922755,1.1381976354391856,0.5834877980672566,0.021313263103365898,0.7546480298042297,0.2234540581703186
29,33,0.5433813872042893,2.4530281443852355,5.915688723502022,0.9941735863685608,0.003286420367658139,0.002534075174480677
30,34,0.3041091728840218,4.164373722399681,1.48922032103744,0.26808956265449524,0.4076032936573029,0.321109801530838
31,35,0.4331892603324733,1.687604693175221,1.97385403912016,7.942903721414037e-06,0.8693240880966187,0.13063465058803558
32,36,0.4528544689492919,5.22282085328083,0.5585865317739594,0.07630185037851334,0.6684154868125916,0.2390520721673965
33,37,0.2829602980843924,3.6095975263040567,0.5572289431541992,2.730631194935995e-06,0.967740833759308,0.03224707767367363
34,38,0.4325928271693409,2.1535448775584785,2.2142668701916133,9.089616241908516e-07,0.9877391457557678,0.012257100082933904
35,39,0.3460693350224419,0.5265115160770929,0.26134578083445714,0.32738375663757324,0.5588758587837219,0.11261216551065445
36,40,0.3166721386194116,0.5937508935376881,0.10043472171421383,0.3792484998703003,0.4809751510620117,0.1228148639202118
37,41,0.5689285735653473,2.197027644404524,1.1008480817755777,0.003173375269398093,0.8451043367385864,0.14766058325767514
38,43,0.4658523585011754,2.1010997528650286,2.0828281810379146,0.0019345962209627032,0.8668684363365173,0.13051365315914154
39,44,0.31770351966399857,2.4340667511814247,0.12153105016456085,0.03900253400206567,0.5994594097137451,0.35209763050079346
40,45,0.4589722314228945,4.517205177535904,0.8759071313322532,0.10707512497901917,0.7507542967796326,0.13936738669872284
41,46,0.4905301810955826,3.626703509316259,11.578209979798816,1.6847252481966282e-06,0.9838601350784302,0.016125619411468506
42,47,0.5026209531773445,2.6071864440615,0.9113859342980584,8.2931321230717e-05,0.20886705815792084,0.7909326553344727
43,48,0.4053293954888589,3.757212212049968,14.111965309602688,0.003984122071415186,0.42185527086257935,0.5731145143508911
44,49,0.4801909563961412,1.4073325451613825,1.3823041975501773,1.0402740372228436e-05,0.9816976189613342,0.01828286051750183
45,50,0.5169292822315141,2.06704600822332,3.7706324028847273,0.006856502499431372,0.6256058812141418,0.3659424483776093
46,51,0.39141949155978,0.6694645083620709,0.4251701283568177,0.2886950969696045,0.44649985432624817,0.26256635785102844
47,52,0.8106528073031658,1.1520245519543846,1.2746880848218314,0.3102775812149048,0.41481679677963257,0.27172356843948364
48,53,0.5442925279258682,3.2777963397223537,0.6753935624552593,0.3092692792415619,0.4971535503864288,0.1849343478679657
49,54,0.4620804243351144,2.3078360254376458,2.5497216442888813,0.9999573230743408,1.3530574506148696e-05,2.867035254894289e-05
50,55,0.3569266433475097,2.422540633285102,0.17783270401777584,0.0001878215989563614,0.8139997124671936,0.18569143116474152
51,56,0.3680424356035663,3.318020445844537,3.3126438606914115,0.009411278180778028,0.8481721878051758,0.14181123673915866
52,57,0.21970997926112454,1.4496567007389838,1.4997212765515926,0.0063718948513269424,0.8868535161018372,0.1065094843506813
53,59,0.12043422453561972,3.1803699255022013,1.282848193954863,2.413083529972937e-05,0.9489187598228456,0.05103261396288872
54,60,0.3717214104357428,2.174186301773181,4.37484108812809,0.01453373022377491,0.4746865034103394,0.5104892849922179
55,61,0.4760213768770658,1.9776367860810464,3.807011937110192,0.0025834799744188786,0.7877798676490784,0.1895574778318405
56,62,0.5186599598269442,1.9005050161344408,1.85834812452077,0.4469124674797058,0.3836915194988251,0.16622915863990784
57,63,0.7044642971587517,2.3251563682395577,0.6906148577742428,0.6507600545883179,0.2027367651462555,0.14544521272182465
58,64,1.223323122097137,8.408627617158471,36.40311473053951,0.2071064114570617,0.5711521506309509,0.21668170392513275
59,65,0.5841765371986507,3.1856818676800867,9.747221852329007,0.007935886271297932,0.8786281943321228,0.11309219151735304
60,67,0.4089170183190623,4.341287127962193,15.135501291502152,0.00010232939530396834,0.017845798283815384,0.9820335507392884
61,68,0.5749602960797894,2.320357425867878,1.5511050504075,0.0005719611654058099,0.8419373035430908,0.15728053450584412
62,69,0.4538114957103793,3.742374503724368,13.67123432848993,0.0013420518953353169,0.6346712708473206,0.363108903169632
63,70,0.6836684350451692,3.8405010643487216,4.0260270498123365,0.0006471650558523834,0.9294809103012084,0.06937180459499359
64,71,0.2287651644934679,2.349642506571979,0.9922493531051207,0.08775914460420609,0.5393378138542175,0.3596079647541046
65,72,0.3386197588708613,3.3775942276544386,0.6910531548168828,0.0014667101204395294,0.5492581725120544,0.4484771192073822
66,73,5.3947966093944364e-06,1.575761025355249,2.3508387075621635,0.00017906106950249523,0.9086030721664428,0.09071289747953416
67,74,0.41763834818799256,1.6174479141149154,2.484297926019785,0.0008903708658181131,0.9374011754989624,0.061488378793001175
68,75,0.6506349171737098,1.9570858348174915,3.82931222074649,0.7465919852256775,0.18954458832740784,0.06298258900642395
69,77,0.5896105923964542,2.124974082634619,4.350800962705426,0.26521798968315125,0.5528666973114014,0.1756977140903473
70,78,0.8678363537668199,3.015373844043291,2.676357962710473,0.7207277417182922,0.1798088401556015,0.09774496406316756
71,79,0.3238998513374278,3.1866651708572,3.847025794961162,0.3933332562446594,0.2627470791339874,0.341001957654953
72,80,0.6139785538714552,3.8803397663132326,3.162655133774035,0.00021413626382127404,0.06938058882951736,0.9304020404815674
73,81,0.4527802996684442,5.6341190170432975,14.043364980556404,0.0019560535438358784,0.6920367479324341,0.3056618273258209
74,82,0.4968884696905846,3.302052020644367,0.2555663649138793,0.0009925267659127712,0.4364501237869263,0.562275230884552
75,84,0.6913454881200901,2.968127792146377,3.9497514887310152,0.004980176687240601,0.4731448888778687,0.5214598178863525
76,85,0.4546015993683997,2.0803937266202928,2.6691786524871577,0.0008176861447282133,0.6887375116348267,0.30959272384643555
77,86,0.42571581895234334,1.2091524297654506,1.031200618053073,2.9637236366397694e-05,0.04187459498643875,0.9580897092819214
78,87,0.6623869489465609,3.8380470542890888,5.16580390227788,0.013428904116153715,0.6956210136413574,0.2830412685871124
79,88,0.5699696964041213,1.3913092519498085,0.7243105527942225,0.016418084502220154,0.7085544466972351,0.2727227210998535
80,89,0.6034687087965094,0.7226066720780155,0.3998364929165103,9.360237163491548e-05,0.2958393096923828,0.7039483189582825
81,92,5.3947966093944364e-06,0.8469599281484159,0.4867148346841784,0.9991819262504578,0.00060811429284513,0.00020767736714333296
82,93,0.6068375487325216,4.89687158256031,11.3722648071703,0.8709595799446106,0.05711238458752633,0.07177601754665375
83,96,0.4900047937450955,4.5486676358805145,3.181609103889692,0.44738346338272095,0.3089082837104797,0.17611511051654816
84,98,0.5392417206563914,4.680887142625907,2.7998584175555488,0.00011309736146358772,0.3987688422203064,0.6010819673538208
85,99,0.8508402188023598,3.0240341975725,4.565027189150917,0.003456736681982875,0.92393958568573,0.0717364102602005
86,100,0.4840125493797021,0.9498477788629996,0.5994125591259979,1.546912972116843e-05,0.9010969400405884,0.09883804619312286
