,event id,width,length,azwidth,p_spot,p_track,p_worm
0,1,0.4211564904207423,1.6902415683358942,2.229016793674448,0.019394353032112118,0.8482000827789307,0.13073265552520752
1,2,0.4859391397844423,3.534891568063265,8.333185487446022,0.0020485585555434227,0.5884273052215576,0.40910664200782776
2,3,0.387561138317625,3.0264417495657168,5.4782555306662895,0.0003887229249812663,0.9076340198516846,0.09176000952720642
3,4,0.6331599760091791,2.940199124649592,5.842225321904175,0.030350707471370694,0.3129849135875702,0.6545685529708862
4,5,0.3772940899143173,3.7224661081838817,8.956703943248671,0.001975875347852707,0.6612688899040222,0.33594512939453125
5,6,0.598348095059028,3.976010833440584,10.3983402519549,0.0002847968717105687,0.2209465503692627,0.7783527374267578
6,8,0.4150835089784268,4.503526542760074,12.611559100326016,0.09872356057167052,0.5268207788467407,0.3238293826580048
7,9,0.3974347069056533,1.8492589514052684,2.5218493879988664,0.009472419507801531,0.33922719955444336,0.6371732354164124
8,10,0.2987660629602391,2.4511886829477594,4.0634145225651634,0.02157890237867832,0.8386597633361816,0.1378544569015503
9,11,0.6089946959831869,1.5911535688320486,1.6954213769064612,0.005705729592591524,0.844919741153717,0.14794176816940308
10,12,0.3827385117225576,2.441892631441796,3.798695350785199,0.9619707465171814,0.018615122884511948,0.019192317500710487
11,14,1.120514365946921,46.15111437271817,1890.0583017056326,0.048784080892801285,0.29992666840553284,0.6499470472335815
12,15,0.4988879249103384,1.0520907963428057,0.7712321758674677,0.06792397052049637,0.4435433149337769,0.4730367064476013
13,16,0.5549350456254248,2.6634560673941534,4.842244940061108,0.0026192923542112108,0.3812629282474518,0.6152852773666382
14,17,1.0789593218788871e-05,1.916266761066676,2.3370105877344094,0.0857129767537117,0.6930837035179138,0.2165305316448212
15,18,0.3608454716487052,3.401226190626613,6.650803228400557,0.007883370853960514,0.6854321360588074,0.305412232875824
16,19,0.4542263268047889,1.6538921206910464,1.9575113323249105,0.06517069041728972,0.6956172585487366,0.22322078049182886
17,20,0.4153277059435581,2.15410169310314,3.3933715121128487,0.0028085662052035327,0.5396071672439575,0.4566270411014557
18,21,0.4948281437649847,2.4008735060988715,3.655986495950473,0.011118512600660324,0.783399760723114,0.20337742567062372
19,22,0.4996783041129083,2.8013397657665164,5.123935637925668,0.008449358865618706,0.828577995300293,0.16194887459278107
20,24,0.4925054414182967,2.9648724537000537,5.574687099969617,0.1145031526684761,0.5965461730957031,0.28042182326316833
21,25,0.42318820389181583,3.4418068701687767,7.2265997405501565,0.019082089886069298,0.7457529306411743,0.2295299172401428
22,26,0.497001374694169,2.7237475586981623,4.696384497224393,0.0170563105493784,0.5722053050994873,0.39175426959991455
23,27,0.2516735497828841,3.624282207038589,8.460003221482081,0.0014289645478129387,0.8654550313949585,0.13257700204849246
24,28,0.7346619154096872,4.3805072064556345,12.484995089540849,0.00025385626940988004,0.8964698314666748,0.1032082587480545
25,29,0.616027084334621,3.4090730294078564,7.616267518670675,0.012656841427087784,0.702065646648407,0.28084108233451843
26,30,0.5744864740638255,4.133603965468877,11.027083498886258,0.016686629503965378,0.6840786933898926,0.29728493094444275
27,31,0.5695119596513627,3.5731114927893097,8.259938945694783,8.847348362905905e-05,0.06282094866037369,0.9370811581611632
28,32,0.4774980487094753,2.529550891144252,4.250779844127339,0.0017624079482629895,0.7727811932563782,0.22483184933662406
29,33,0.5161131783289973,2.9377281194705027,5.781739198635128,0.0006520315655507147,0.23045699298381805,0.7668184638023376
30,34,0.736961691965766,2.436375717891288,3.9934792325545954,0.00014460229431279004,0.7577699422836304,0.2419527173042297
31,35,0.8188683310216532,1.3012656218027054,1.2919471486672476,0.00805651769042015,0.8181786537170409,0.17229390144348145
32,36,1.0828617444677262,1.852099346995797,2.498993093976664,0.0032416398171335463,0.07565628737211227,0.9210434556007384
33,37,0.2306966593697997,3.6933453905169613,8.657672157332783,0.01861695200204849,0.24885617196559906,0.7318928241729736
34,38,0.5061144469595295,2.168876320765196,3.0563858888894395,0.8496732115745544,0.011478838510811329,0.1386600136756897
35,39,0.5185742748919535,1.7294859281754733,1.9597738166291367,0.4092187583446503,0.07005558162927628,0.5197370648384094
36,40,1.3264510668789395,2.6978613329684618,3.693670662811392,0.000586803478654474,0.5330086946487427,0.4662613570690155
37,41,4.6218315110467545,99.44026050132229,424.5045025555304,0.01640472374856472,0.7226295471191406,0.2591440975666046
38,42,0.4998222433161386,1.7623412447953055,2.0908797838250264,0.09613750874996184,0.687374472618103,0.2100527137517929
39,43,0.4258457506557595,1.9992304655252369,2.634314991540248,0.003138010622933507,0.010590109042823316,0.9861578941345216
40,44,0.3799856365669453,3.242571322946587,6.986698136712969,0.0036076290998607865,0.15661224722862244,0.8392927050590515
41,45,1.4646965971353367,658.8784880598862,431773.1294148266,0.1206529065966606,0.7184276580810547,0.15885378420352936
42,46,0.40761286432620375,4.0100264238171786,9.464927792023216,0.013639853335916996,0.4511254727840424,0.5347194075584412
43,47,0.4666724199905895,3.766893690999012,9.49062573191473,0.0025983797386288643,0.592574954032898,0.4044037759304047
44,48,0.2478203233746035,3.368562692127949,7.096219226260039,0.013187885284423828,0.8514739274978638,0.13439345359802246
45,49,0.3483360195867993,2.5683170665141426,4.030845556410558,0.003732622368261218,0.5381459593772888,0.4532943367958069
46,50,0.43569800070661024,3.0109244027773885,5.594010783090105,0.002923794323578477,0.6179681420326233,0.3741142451763153
47,51,0.9186580888692639,1.1206884353070836,0.9964130834925355,0.007296198979020119,0.6870408058166504,0.3029091954231262
48,53,0.578412586248922,3.5758059137661733,8.282062658504259,0.2635814845561981,0.4102862179279328,0.29479217529296875
49,54,0.4746873063156408,4.79418969841749,14.428516744369734,0.004117881413549185,0.2063856720924377,0.7893882393836975
50,55,0.5798164983484977,3.686971671898604,8.838202009258385,0.9285531640052797,0.01181988511234522,0.0594533160328865
51,56,0.4139334144679849,2.6360977030633834,4.3005986933792935,0.2272209674119949,0.4525217711925506,0.3083777725696564
52,57,0.6097302467481317,2.076130578491239,2.961081247451787,0.00013948696141596884,0.7764811515808105,0.22333553433418274
53,58,0.4940205503689066,3.5089644532403304,7.795735675807258,0.001219180296175182,0.19797606766223907,0.7985265851020813
54,59,0.2939623348868438,3.4318967549945154,7.3019501211619975,0.002394030103459955,0.11339828372001648,0.8834548592567444
55,60,0.6405862007198599,2.620764821010264,4.576122272473177,0.01633227802813053,0.4818938076496124,0.4998039305210114
56,61,0.5953403291453788,2.1280382086815344,3.0165981275788813,0.12095650285482408,0.2529357373714447,0.625262439250946
57,62,0.4769414293055534,3.6272893275473215,8.06585481279517,0.002398370997980237,0.5742816329002379,0.4212927222251892
58,63,0.4977422470769103,3.363441386824225,7.20496444832897,0.0005195377743802965,0.8398880958557129,0.15930698812007904
59,64,1.0789593218788871e-05,1.4981053615570925,1.4348365866969348,0.003307014238089323,0.4718683362007141,0.5244719386100769
60,65,0.6612441710967555,3.5514723790026475,8.044044649878114,0.04425964877009392,0.6735983490943909,0.2784513235092163
61,66,0.3694816203732629,3.358450541901397,7.38407245668921,0.002964687533676625,0.5704345703125,0.4245016872882843
62,67,0.4702373875751056,2.084090958100228,2.8603559401260705,0.0019050772534683347,0.7065117359161377,0.29009971022605896
63,68,0.3966247373417716,3.4136099069821664,7.729847562675473,0.07963897287845613,0.4898081421852112,0.39177006483078003
64,69,1.52587890625e-05,1.758220521010884,1.9796326366906232,0.0002657186705619097,0.7744268774986267,0.2251818031072617
65,70,0.4925521128885034,2.888902208746139,5.607376654441778,0.0008814642787910998,0.7864456772804259,0.21228282153606406
66,71,1.9843236152480528,3.750966968273071,12.587453960976159,0.22017066180706024,0.2525934875011444,0.5218729376792908
67,72,0.4439402497373252,1.8782458313362056,2.4918189597298417,0.0031241350807249546,0.6770981550216675,0.3195536136627197
68,73,0.42801027939519504,1.7208028563956663,1.9407080149519769,0.017804743722081184,0.7939476370811462,0.181239053606987
69,74,0.25895782043090915,4.21153169881586,11.731758924088904,0.014689626172184944,0.6383883953094482,0.3412089049816132
70,76,0.6081242617611519,1.7265122880021853,2.1273968590083085,3.7852811374250455e-07,0.00011273453856119883,0.9998868703842164
71,77,0.2943568647982358,0.9632519853616668,0.6219150166970604,0.05291454493999481,0.791772186756134,0.15343061089515686
72,78,0.4139855093739811,2.3111658678175955,3.581738636253182,0.016682051122188568,0.6311261653900146,0.3504389524459839
73,79,0.4173308237669047,2.1987716148250667,3.087842015971666,0.0005106910248287021,0.8071777224540709,0.19188609719276428
74,80,0.5175365707550252,1.4750567449318317,1.44766747549548,0.04271247610449791,0.5899371504783629,0.3542580008506775
75,81,0.4993795453454259,3.625366646159712,8.623175199297608,0.011657487601041794,0.8123377561569214,0.17431911826133728
76,82,0.6665522306443435,4.704158245901999,13.865570497702189,0.27304235100746155,0.3615459501743317,0.3639167547225952
77,83,0.4963292920017334,2.7065302252834584,4.849221771750226,0.0023994799703359604,0.8843430876731873,0.11286812275648116
78,84,0.4437447108354437,4.071535944214916,10.996903918006478,0.012836153618991377,0.8378317952156067,0.1480729728937149
79,85,0.35668767606169777,3.559425937059147,7.830655843745574,0.07317725569009781,0.1030976101756096,0.8227208852767944
80,86,0.47539885673030197,2.2740098140697445,3.6757699343719663,0.0012573214480653405,0.6237295866012573,0.3742683529853821
81,87,0.476716335554905,1.3600247996346335,1.36519517955407,0.0014566697645932436,0.2045382857322693,0.7927163243293762
82,88,0.6615968983040017,3.8947891915742976,9.679989323647016,0.008403023704886436,0.5808538198471069,0.3875871300697327
83,89,0.6159167591237107,1.7620164888776992,2.0653851419418654,0.0036523870658129454,0.4099862575531006,0.5850541591644287
84,90,0.4954006110974139,2.86049786382527,5.268150021997705,0.1646154224872589,0.25948289036750793,0.525080680847168
85,91,0.32749799846012106,3.3319633664024235,7.122767582634162,0.017851954326033592,0.7808603644371033,0.19841773808002472
86,92,0.5189382393665942,2.543556534347001,4.233050064445842,0.8015899062156677,0.11714202910661695,0.08080744743347168
87,93,1.0129265197119353,3.907252463261422,10.006628524294877,0.00011127620382467285,0.1922758966684341,0.8075607419013977
88,94,0.454614170309289,1.5153683960472106,1.446525883437461,0.5957976579666138,0.21663926541805267,0.1849860399961472
89,95,1.52587890625e-05,3.8650176051707237,9.462402252712566,0.006166095845401287,0.8481617569923401,0.14506597816944122
90,96,0.4302578341937621,1.322381927611551,1.1498009915860448,0.0005970718339085579,0.8637657761573792,0.13534899055957794
91,97,0.3322596538228453,5.169320059719618,16.499216931394045,0.0069268415682017795,0.8845539093017578,0.10837291926145554
92,98,1.3376907994583902,382.1879848784726,66530.39955549533,0.7616795301437378,0.022960146889090538,0.2152164876461029
93,99,1.0789593218788871e-05,4.163072521553642,10.916537366276012,0.32001325488090515,0.4201864302158356,0.2156833708286285
