,event id,width,length,azwidth,p_spot,p_track,p_worm
0,1,0.6148442242635085,12.043390815523367,15.865216404624062,0.008304279297590256,0.2844084203243256,0.08825404942035675
1,2,1.5460716207782854,13.749084888880185,16.73236443755404,0.0015936467098072171,0.008851402439177036,0.9895527362823486
2,3,0.39140382360811227,18.75573592005713,45.09481434773528,9.156438318314032e-05,0.9652156233787536,0.02600476145744324
3,4,0.39905829288839706,13.402356416027136,18.944713617424078,0.01552021037787199,0.0407697930932045,0.9436827301979064
4,5,0.3975522432351637,11.307927707024861,12.671813341588186,0.009570720605552195,0.9051892757415771,0.08014284074306488
5,6,0.3633755382027283,10.147405799642105,7.584271663481071,7.530190487159416e-05,0.8879844546318054,0.011096312664449215
6,7,0.3139155548304763,4.741778998007738,0.8333387359909114,0.0016523220110684633,0.6877102851867676,0.06960324943065642
7,8,0.3800379513467141,9.848743054416797,8.356667461613567,1.21250350275659e-05,0.9746648669242859,0.009357808157801628
8,9,0.7016395969122985,13.712263434401429,22.53453980865282,0.0032237251289188858,0.29354327917099,0.7021639347076416
9,11,0.7127805801468923,19.26533624221216,33.30690323959262,0.035467535257339484,0.4472565948963165,0.5159488320350647
10,12,0.4602236089606446,15.867490475086225,14.47887088760291,0.00022887667000759398,0.9601023197174072,0.03686338663101196
11,13,0.30933341051632657,11.257216700237565,12.849588124406106,0.010788134299218656,0.6642841100692749,0.3221321403980255
12,14,0.678063459445681,8.426149487157621,9.92321678764926,0.012530390173196793,0.1891893893480301,0.797294020652771
13,15,0.4280452693624502,17.822584892405587,27.81336759040401,8.660589628561867e-06,0.9966610670089722,0.0032733806874603033
14,16,0.4273720916339716,4.407411235231205,1.410318609175711,0.013678587041795255,0.731913685798645,0.2521049082279205
15,17,0.3876011821878821,13.4347416460095,16.133999835346344,0.0037487386725842953,0.9080275297164916,0.06617750227451323
16,18,0.9345749317473896,21.80788244262996,34.314834243785725,0.2023748010396957,0.01517502684146166,0.7824408411979675
17,19,0.47289730748964703,14.131079526749634,15.529085550508693,9.291999049310107e-06,0.9907337427139282,0.00875791534781456
18,20,0.4619232827773693,16.548568127981163,21.251690542139173,0.001918234163895249,0.9852213263511658,0.012629961594939232
19,21,0.684331408604947,17.743556917726483,21.42863706869363,0.007735360879451037,0.11965513974428175,0.8719897866249084
20,22,0.30729925007528597,20.450205687023566,39.911458942987416,0.0017000311054289339,0.968040943145752,0.02557020075619221
21,23,0.6356297890535991,11.313088327844047,18.71214866844666,0.0005961430724710226,0.8462827801704407,0.15268734097480774
22,24,0.3632946797554565,15.880688289570054,22.856403687035023,0.021619517356157303,0.024702705442905426,0.0395677462220192
23,25,0.1867412920109618,17.051116599450786,36.017171050996495,0.016466906294226646,0.9369144439697266,0.04169778153300285
24,26,0.4916543767313857,12.105179549554805,2.5033879897571842,0.09567873924970627,0.6619793176651001,0.2402200400829315
25,27,0.6026914741293842,16.95256725116688,19.414842788662792,0.6036134958267212,0.19025185704231265,0.17906314134597778
26,28,0.27965946785274604,13.181094395645829,19.02548890005417,0.051938440650701516,0.8906252980232239,0.05675362050533295
27,29,0.37547629200704224,14.619185145203964,27.102595735891786,0.0013685887679457664,0.9738686084747314,0.02187313698232174
28,30,0.40986392390454907,2.1541940303108817,0.5050785057316248,0.003160992171615362,0.9027482271194458,0.09061665087938307
29,31,0.23036465043233045,16.003116948794712,13.865549510098813,0.10931028425693512,0.668753981590271,0.1827015429735184
30,32,0.6862264787121989,23.23977120140973,45.36523242253315,0.15167108178138733,0.10365039855241777,0.7440383434295654
31,33,0.3899989364209301,8.38205183007419,5.039876244337316,0.008894834667444229,0.8232856392860413,0.10730164498090744
32,34,0.17409912466352398,9.547814266878582,6.532200612084089,0.5222718119621277,0.390179306268692,0.08720467239618301
33,35,0.6917458064965654,10.199029527000453,11.030934093690501,0.0014636707492172716,0.7659110426902771,0.2227712571620941
34,36,0.31065890179439715,17.60307215371766,22.918505647929386,0.0036199842579662795,0.01113235391676426,0.01840473525226116
35,37,0.5917710648621292,11.81948516234757,7.8625578523113715,0.0002949617337435484,0.751167893409729,0.2480129450559616
36,38,0.5441422859981005,15.823119080446546,18.681113617063147,0.00012506020721048114,0.9249926209449768,0.07403592020273209
37,39,0.5815833010783414,10.677150039232203,11.93259040277646,0.00016343135212082416,0.8582040071487427,0.14145609736442566
38,40,0.4021603781965248,4.451585057191526,2.4992362966430592,0.00013996481720823797,0.9825804829597472,0.016041914001107216
39,41,0.5187917601981369,17.962976196797992,40.57924038651354,0.027250101789832115,0.4786965847015381,0.21571683883666992
40,42,0.29457703476428154,9.022924348049091,9.26081633276084,0.004453635774552822,0.8891282677650452,0.10528581589460373
41,43,0.4128492671247637,11.86382725347841,15.891115568975987,0.0005803184467367827,0.8998745679855347,0.09549495577812196
42,44,0.4044303015871693,12.788726517303061,10.07756702467107,0.1899115890264511,0.5066741108894348,0.2401309460401535
43,45,2.5225346503933963,6.82870973671859,14.19578863227572,0.27279627323150635,0.018068965524435043,0.7079405188560486
44,46,0.8481404796071225,18.095926195916885,14.308789903977619,0.010312158614397049,0.0182966198772192,0.9713808298110962
45,47,8.825505502125626,400.88336173904037,125426.07978625294,1.8592822925711516e-06,0.0048372941091656685,0.9951586127281188
46,48,0.4591329168922377,3.6436947347054214,1.6987262249429174,7.033864676486701e-05,0.9909223914146424,0.008403763175010681
47,49,0.6675234414039143,21.020568409941927,42.9529088771369,0.011716919019818306,0.361515074968338,0.6258544921875
48,50,0.41160816071216894,21.253542527453426,30.28757620204581,0.007022839970886707,0.9396501183509828,0.04197939112782478
49,51,0.30939266792431586,13.447552576886306,13.35960909374507,0.0027132828254252672,0.8402229547500609,0.1393805295228958
50,52,0.5236659553429629,16.14981867781868,20.919283825034853,0.0006001312867738308,0.8757023811340332,0.12318270653486252
51,53,0.6483449869488747,17.27193569625699,17.89301948762943,0.01106717623770237,0.4622845947742462,0.5072982311248779
52,54,0.46638998110864,18.28565666660825,46.96592616223061,0.0002919597318395972,0.8467978239059448,0.04676796123385429
53,55,0.6130524152806808,18.62486754942256,33.17271296895429,0.002468426013365388,0.7056728005409241,0.2905153930187225
54,56,0.8497594825519306,21.455503003341274,41.84976550379002,0.30026429891586304,0.015688501298427582,0.6840210556983948
55,57,0.4940683735994949,12.683526945632545,9.390248824979906,0.00019727111794054505,0.9159159660339355,0.08019810169935226
56,58,0.3789974793041201,5.8191506278088845,2.299626973011875,0.00037832921952940534,0.8935470581054688,0.07707235962152481
57,59,0.4663884518733537,21.06069918135886,53.68282127068426,0.010050514712929727,0.7691775560379028,0.21220676600933075
58,60,0.7209469710049673,4.362734636327434,1.8915718427973665,0.0001483746455051005,0.910616397857666,0.08808594942092897
59,61,0.4032101997284384,11.315320213918099,9.398371391855946,0.00033654822618700564,0.9381836652755736,0.06041630357503891
60,62,0.8910092142374816,18.54167180060506,13.137975746223646,0.975226640701294,0.0009020657162182033,0.023868201300501823
61,63,0.3529723571260119,8.304216739068773,7.5223216225798515,0.006277235224843025,0.6987985372543335,0.2857760488986969
62,64,0.7640044054779774,13.281782838989885,14.483841808704527,0.006893711630254985,0.17237739264965055,0.8200449347496033
63,65,0.4429319373441518,14.409189443093311,12.074625035889008,0.0012197799514979124,0.9463987946510316,0.04569590464234352
64,66,4.857299675598128,786.8328378431412,139378.73472030382,0.3466354310512543,0.5165496468544006,0.11473586410284042
65,67,0.30662022012114915,13.182683382984429,32.80529693425366,0.11865859478712082,0.2259443253278733,0.6546599268913269
66,68,0.3811944960024297,15.915223478554662,28.12360181995361,0.013647614046931269,0.9341771602630616,0.0513954721391201
67,69,0.3875786991140149,4.141215886398907,0.7237370572626224,0.0001064818789018318,0.9793120622634888,0.010821377858519554
68,70,0.3892325334554157,11.508836805677085,9.370310788319019,0.0005020042299292982,0.9547950625419616,0.04174434021115303
69,71,0.3637368198499116,14.374841764642365,22.07795374763201,0.009822247549891472,0.9335870146751404,0.032025959342718124
70,72,0.7676176596692948,17.054500774971174,24.91233865498701,0.5707698464393616,0.0994153544306755,0.326391875743866
71,73,0.3766197915746588,8.841863369383693,7.720252811447272,0.0005681313341483474,0.9762603640556335,0.01574081368744373
72,74,0.3492952234283032,9.417410616588137,8.710091878809184,0.001990822609513998,0.8632463216781616,0.07171856611967088
73,75,0.4323889499290273,11.625240261037073,9.410662572614493,0.8525117039680481,0.1231764703989029,0.014955219812691212
74,76,0.11555480257794518,6.524423771330914,8.109496921005679,0.023374274373054504,0.8498107194900513,0.05805908143520355
75,77,0.8340003769529172,22.66321170710443,32.248044342719744,0.0014491587644442914,0.002278951229527593,0.9962716102600098
76,78,0.304558051071926,11.470277630982356,7.489531527685468,6.778765964554623e-05,0.9800395369529724,0.016347706317901608
77,79,0.3637990633083574,11.09236594507591,6.334508305533059,0.0002678521850612014,0.8860906958580017,0.10657353699207306
78,80,0.8143879736865445,14.733498026393692,19.07548939886394,0.00813498441129923,0.08636652678251266,0.9052951335906982
79,81,0.5425689872983948,17.036577966016885,34.31511937186898,0.005818582139909267,0.8446809649467468,0.13779224455356598
80,83,0.32917296486502584,10.03181529670522,10.469559005082843,-1.0,-1.0,-1.0
81,84,0.2911539742662568,8.182620207903165,5.7946829427069995,0.00026911680470220745,0.99094557762146,0.008745993487536905
82,85,0.4478704941628597,19.23422416971216,33.33009348674203,0.03136031702160835,0.8749010562896729,0.08161968737840652
83,86,0.4524710749047277,21.502775480344734,51.046579323255216,0.00020069311722181732,0.9739600419998168,0.018595585599541664
84,87,0.8149036442497112,10.5773861649462,5.0388369027813065,0.0021519854199141264,0.9280575513839722,0.025996522977948192
85,88,0.3926762579011685,13.091382590126221,18.71201151174932,0.0005838188226334751,0.02116857282817364,0.9781728386878968
86,89,0.5112748968115508,9.221029615378164,16.589510811872508,0.000126741811982356,0.9782545566558838,0.013398227281868458
87,90,0.688993239356828,17.966670568401508,21.71900520570269,0.0001524788240203634,0.9762108325958252,0.02341095544397831
88,91,0.3812763809938346,9.903310302079145,8.993437827247327,0.9392012357711792,0.007862405851483345,0.05281710997223854
89,92,0.5280988183751515,15.904452792056315,15.434365522274852,8.882085239747539e-05,0.9901636242866516,0.009702956303954123
90,93,0.9735154286349432,3.347369367193879,1.8804854342705148,0.0007983844261616467,0.9202749729156494,0.07173582911491394
91,94,0.7211998796434655,4.155182714125482,2.178805253497184,0.079177126288414,0.5202426314353943,0.3924974799156189
92,95,0.3183174761243024,24.251043618281866,42.2461015980942,5.6695476814638816e-05,0.94118469953537,0.057170126587152474
93,96,0.42975011482586656,17.01323587607719,17.298457687057866,0.07718256115913391,0.7821933627128601,0.13540339469909668
94,97,0.3517490374828358,23.53063769199688,86.24278407986519,0.0009878326673060656,0.9475821256637572,0.04781802371144295
95,98,0.6067191810493141,7.206434919930937,4.776653936638935,0.3746563494205475,0.24953638017177585,0.3750783801078797
96,99,0.31054507638464385,14.276315813491347,17.905556390114494,1.3633966773340944e-06,0.9978393316268921,0.002137894043698907
97,100,0.6302834465015575,19.86884997698568,31.99016630498653,0.07709590345621109,0.3715434372425079,0.4077785015106201
