,event id,width,length,azwidth,p_spot,p_track,p_worm
0,1,0.5067564948660291,24.623827419711585,0.9374305139998576,1.92022980627371e-05,0.9904336929321288,0.009425832889974116
1,2,0.4291292504022904,19.520358001784523,12.142405020142432,2.763701013464015e-05,0.9147204756736756,0.08499638736248016
2,3,0.332246322436239,12.263558484722035,0.11046106206028038,0.00020495729404501617,0.9905098080635072,0.007236430421471595
3,5,0.2024354235946728,20.53097021128329,3.2708792687154937,3.492692849249579e-05,0.9881408214569092,0.010786457918584349
4,6,0.32791233797288405,17.185200735128742,4.530107465992003,1.939733556355349e-05,0.9810598492622375,0.01834322139620781
5,7,0.6449117008238191,19.353496888439995,0.4525006262299062,2.069002766802441e-05,0.9752177000045776,0.024622738361358643
6,8,0.6927849528035896,29.5994142590122,3.0657068168083264,8.86777797859395e-06,0.9932422041893004,0.0067403819411993035
7,9,0.4297213285008862,24.730058822071943,20.369991787026528,0.0003154964360874146,0.972572147846222,0.0269937627017498
8,10,8.287418232184374,183.75135812854992,835.2473518868543,0.0002506763848941773,0.4815556406974793,0.5160142779350281
9,11,0.35965161048570626,16.24597040018199,12.022149244986265,9.149627658189273e-06,0.9982131719589232,0.001675461418926716
10,12,0.566888777754192,11.873708142008311,4.888571550455699,5.135270384926116e-06,0.9940557479858398,0.0059305094182491285
11,13,0.40146963296422106,14.831439450148899,1.8133694492757588,0.0001452605065423995,0.987343430519104,0.01096363179385662
12,14,0.4072100540360626,18.039977435526982,4.048678939491287,0.0002874182828236372,0.7578015923500061,0.24131019413471225
13,15,0.7133361488365567,24.44876700353021,51.16296904143734,0.2812754213809967,0.4247472584247589,0.2923643887042999
14,16,0.2857006857984044,18.420637961546003,7.0414937843281615,0.9198424220085144,0.05544059351086617,0.019573744386434555
15,17,0.4125978310064212,20.234639595327785,0.23584243002370955,0.00029305604402907187,0.9926168322563172,0.006999340374022722
16,18,0.3907168335032479,22.91300686573041,8.713178148689835,0.0003137704625260085,0.9763990044593812,0.02322470210492611
17,19,0.2876679658723347,22.375929741202196,0.4036142157175772,0.00032508815638720984,0.9792628288269044,0.01905643194913864
18,20,0.7117884600979043,29.05179772480553,199.47814246025632,0.0011113159125670786,0.07910528779029846,0.9197598695755004
19,21,0.6498055777450117,30.048399270909012,3.1299828778684216,0.0074416715651750565,0.9368294477462769,0.05525381863117218
20,22,0.4148876865384313,25.04922085267261,13.699515767168092,0.6631219387054443,0.28596770763397217,0.0471273697912693
21,23,0.4140795692837243,7.3636619200971065,0.4798994273220642,0.0064311386086046704,0.8207600116729736,0.1715540885925293
22,24,0.6565090082291626,19.60697887794791,9.729460041217944,0.019923198968172073,0.7610278129577637,0.21876226365566254
23,25,0.3934926894293261,19.735582129647923,9.817319900025463,0.00048037467058748007,0.9535688161849976,0.044123973697423935
24,26,0.5259067424614385,14.209795026522356,3.906795609400117,3.7331094063119956e-05,0.9950811862945556,0.00421801395714283
25,27,0.37360841546193146,15.962106546499381,1.3160360612831308,0.00010193384514423089,0.9827238917350768,0.01700769178569317
26,28,0.2468304075808687,17.408806186750155,4.584149095156032,2.219196358055342e-05,0.9982838034629822,0.0016748546622693539
27,29,11.96345401910578,606.6032309890803,367217.59358036896,-1.0,-1.0,-1.0
28,30,0.6829294814612591,22.309379941662307,12.6262465199773,0.015885500237345695,0.5040858387947083,0.4794433414936066
29,31,0.4297520185184873,21.41607321070164,0.8250356962597618,0.0012095904676243665,0.9731446504592896,0.025379035621881485
30,32,0.4096151422550884,11.427710138627178,2.551637606282604,7.343421020777896e-05,0.9707740545272828,0.0291088093072176
31,33,0.406292640008696,9.288422363698867,0.3312873442333842,8.221049938583748e-06,0.9957139492034912,0.004267201758921146
32,34,0.7656848428041673,27.05183396638985,0.5950563979773656,0.16777785122394562,0.16145393252372742,0.6688709855079651
33,35,0.3568756786431431,22.20317694614695,2.1231380887674423,3.656965418485925e-05,0.9925336837768556,0.0070571242831647405
34,36,0.6687039814617679,25.276392450656513,17.184720380721537,0.0011342061916366222,0.9641351103782654,0.03332528844475746
35,37,0.3580482341003862,19.339751570758608,9.42711317800392,0.00017951395420823246,0.9948272109031676,0.004615160636603832
36,38,0.35385983273725746,15.561912024688368,0.6772198217421467,0.0046047535724937924,0.9647473096847534,0.03044828400015832
37,39,0.4530983235536192,12.182666661634615,0.5542747531221395,9.116305591305718e-05,0.988390564918518,0.01103390846401453
38,40,0.6469131395715332,23.407463481699075,2.403222468827801,5.108634286443703e-05,0.7808555960655212,0.2190776914358139
39,41,0.4992913674032721,16.533803319831563,28.43396227954133,7.185132744780278e-06,0.9866156578063964,0.01336806919425726
40,42,0.4521336668475892,6.153493271324557,2.027564198886999,0.0005834992043673992,0.8211502432823181,0.1754666566848755
41,43,0.5266909029348278,23.645309469290357,7.132145815192874,0.0007158302469179034,0.8851708173751831,0.1134614571928978
42,44,0.4141131830630013,25.443493411309,55.39015319124371,0.008402627892792225,0.6180059313774109,0.20512934029102325
43,45,0.5013496360461839,28.245024965809712,8.664667933472545,9.369480721943546e-06,0.9984129667282104,0.001563200494274497
44,46,1.3420995021514748,20.656505494239934,17.284104112360875,6.923112960066645e-05,0.07309117168188095,0.926835596561432
45,47,1.08960868221909,25.496410936006214,6.25211833435832,0.0439089722931385,0.02071579545736313,0.9353492856025696
46,48,0.4320414643740424,21.5370800039214,1.743254337714333,1.602245720278006e-05,0.9915367364883424,0.008346240036189556
47,49,0.20527328276372905,10.372197805327712,3.2342686488041585,0.9271165728569032,0.06482279300689697,0.007920505478978157
48,50,0.6508696635643424,10.596821782400612,3.7499812461518216,3.869886131724344e-05,0.9696344137191772,0.030312458053231236
49,51,0.4315549815151848,20.002234341033684,13.817634152126693,4.975821502739564e-05,0.9818202257156372,0.01793079264461994
50,52,0.33434169577723205,13.790159628401652,16.379428290790145,0.0009508333168923856,0.9894262552261353,0.00905990693718195
51,53,0.413163190692555,24.20348570355293,27.941195700294585,0.001485189306549728,0.9674142003059388,0.031079964712262164
52,54,0.3725764806932059,16.521382547897062,0.3385518161209776,1.2187349057057872e-05,0.9962543249130248,0.003198773134499789
53,55,0.3365834860745487,11.947211340678509,0.41661303847359377,0.0009247983689419924,0.9900155663490297,0.009010587818920612
54,56,0.4073224584388273,24.957617644254523,0.1659791660701423,6.440341735469701e-07,0.9984525442123412,0.0013396067079156635
55,57,0.3707624727697502,11.454621383469007,1.1070762447819793,4.480224106373497e-06,0.9958329796791076,0.003966475836932659
56,58,0.4454830455121622,25.43698339528089,27.62667173038724,1.5611760773026615e-06,0.9981632828712464,0.0018188089597970245
57,59,0.4916138962163196,28.28151437870811,23.231076646041412,2.654356194398133e-06,0.9970369338989258,0.0020671607926487927
58,60,8.246964203433581,15.114998924774781,76.43900175009503,1.6270570313281493e-07,1.2738367161091444e-07,0.9999991655349731
59,61,0.5298648828184086,20.292829812798065,0.4273704882816721,1.3234539437689818e-05,0.9872528910636902,0.012517407536506651
60,62,10.821604025921149,45.482853885235535,118.41136266818435,1.5088286318132302e-06,0.01180824264883995,0.9881712198257446
61,63,0.5238768515465245,5.821982683779393,0.8076620458290014,7.090553845046088e-05,0.954538881778717,0.04391290992498398
62,64,0.3873727952188864,19.346185005396713,26.518998767228823,0.023918582126498226,0.9490545988082886,0.023236287757754333
63,65,0.6904759641502284,13.627795314021707,3.361258245885787,0.0003386672760825604,0.8872800469398499,0.11237697303295137
64,66,2.2609159504284206,15.741214558406673,17.520745359137695,1.8032991647487506e-05,0.021960372105240825,0.9780187010765076
65,67,0.4992659913593851,19.068284218444475,10.580279166244413,2.856598939615652e-06,0.9938865303993224,0.0054305908270180225
66,68,0.6383520994262188,13.414368634453936,0.4098255595157281,0.005256755277514458,0.6437718272209167,0.3500904440879822
67,69,0.6017841466232415,19.19517519756008,0.925513060825761,0.0006308742449618876,0.9251601099967957,0.0737711489200592
68,70,0.3637370831942706,13.950322577355726,2.5495066636071892,7.216137419163713e-06,0.996590495109558,0.002915231743827462
69,71,0.5902182788195401,29.58674653298037,0.8818916952706608,0.8965693116188049,0.011456134729087351,0.0918884202837944
70,72,0.3458788858038026,22.77237929103849,25.79936374725768,1.5481755326618437e-05,0.9960466027259828,0.0029067357536405325
71,73,1.6494334154666381,8.529709526544492,2.9668714481890963,5.619828880298883e-05,0.8798973560333252,0.12001830339431765
72,74,0.5242564002741298,28.748651159987478,3.304294740518824,1.1346515975674265e-06,0.9988002777099608,0.0011832095915451644
73,75,4.307668435943663,535.036550669452,3261.7856176834307,8.660093044454698e-06,0.9941586256027222,0.005798762198537588
74,76,0.3411480944451682,25.888870675135934,8.697883626703026,0.4591509997844696,0.4855526089668274,0.038798023015260696
75,77,0.5002950562317255,15.20779397616036,4.763968662669568,0.0009662734810262918,0.9464565515518188,0.0521196611225605
76,78,0.6213230272505168,30.671951306727124,7.711094765624067,0.8815649747848511,0.0297623947262764,0.08777517080307007
77,79,7.3672189652905224,18.052393767360925,215.95211776061367,0.003350327024236321,0.060684725642204285,0.931489109992981
78,80,0.48420016784818704,19.18469091559493,0.3391626931656255,1.4131725947663654e-05,0.9541832804679872,0.04579411074519157
79,81,0.4470441964949062,22.67887771807392,6.54683400442125,3.754230419872329e-06,0.9929514527320862,0.0070416671223938465
80,82,0.28327071644117763,15.599043452572449,1.5737419004728073,0.0006580172921530902,0.9320271611213684,0.06344239413738251
81,83,0.6599545405165078,30.914326385038052,3.4016655368910027,0.8870500326156616,0.012431785464286804,0.097945936024189
82,84,0.5962401429181395,17.86140157853272,10.783566386307735,0.006652302574366331,0.7769390940666199,0.2159181237220764
83,85,0.4949983656736543,13.82266901018539,0.2601822830221948,6.587245297851041e-05,0.9809269905090332,0.01898464374244213
84,86,0.4513582319491914,10.228420383295216,2.402852605976513,0.08361052721738815,0.6841634511947632,0.2321866452693939
85,87,0.3782100605271073,20.577896748578556,31.75682418507521,1.018471630231943e-05,0.99608314037323,0.0034775733947753906
86,88,0.30044241934333143,12.506174845366118,0.32175956584938475,0.024806253612041473,0.9150710105895996,0.059876594692468636
87,89,0.4116169231601099,10.068920431483974,0.7182506965463564,6.961737381061539e-05,0.9786682724952698,0.021123846992850304
88,90,0.4621981357754871,22.283689880253352,10.795382864924418,0.2636928260326385,0.17471811175346375,0.5615155696868896
89,91,2.4620750010786203,19.953303956656548,10.378566301713484,0.0027547788340598345,0.134984090924263,0.8621621131896973
90,92,0.4296172554297401,11.099074827785588,3.918877236167953,0.0010058390907943249,0.9717289805412292,0.02691962942481041
91,94,0.4308744732663577,29.40434241024999,4.372132173846299,2.9276907298481092e-05,0.9948440790176392,0.005011827684938908
92,95,13.397444113723225,38.115581321555226,220.0664144052996,0.0003923492331523448,0.9854163527488708,0.014161780476570131
93,96,1.2318842226322226,12.346381762570156,9.35182934955493,0.031317874789237976,0.014399360865354538,0.9542717337608336
94,97,0.5221194553552693,17.558156547535233,16.680873557136387,2.7955251425737512e-05,0.966727614402771,0.03322546556591988
95,98,0.5169571314978628,21.32412402983313,84.98641077964535,8.003306720638648e-05,0.9404426217079164,0.05947184562683105
96,99,0.1738863843551831,12.117235334169454,1.105641310608776,3.5552880035538688e-06,0.9957412481307985,0.002974181668832898
97,100,0.4390890103198584,15.837538733574045,2.0114231663150437,0.004454167559742928,0.9661319851875304,0.02867514826357365
