,event id,width,length,azwidth,p_spot,p_track,p_worm
0,1,0.4061078423587864,3.9351260553541567,1.6126444627914498,0.02326924540102482,0.429317444562912,0.5458441376686096
1,2,0.6423328857858159,3.4370414763379915,1.503410196379988,9.492049139225855e-05,0.9177507162094116,0.08211696892976761
2,3,0.4040014283343353,1.7738060255871493,0.4622457392700701,0.010819065384566784,0.1416802704334259,0.8470774292945862
3,4,0.7955736972937593,2.9372282584543306,1.4318908121430935,0.00014338364417199043,0.015822069719433784,0.9840340614318848
4,5,0.2358586315820166,3.5693326540629315,1.1236766308174009,0.13083341717720032,0.3676702082157135,0.4561253786087036
5,6,2.7105894106949933,27.63200921797142,723.4427267119862,3.5425014743850625e-07,0.0010782178724184632,0.998920440673828
6,7,0.4266775876309913,3.174104127966161,1.235784635289312,0.00124112400226295,0.833502471446991,0.16377760469913485
7,8,0.4190407235646069,3.236860302534496,1.267608124938436,0.0017122161807492375,0.5254358053207397,0.4723394513130188
8,9,2.0338190265152574,4.000773039057498,10.030888999747287,5.178503124625422e-05,0.04253609478473663,0.9574077129364014
9,10,0.4209023236523294,3.716090715685002,1.6694899643855423,0.00256028538569808,0.7008228302001953,0.2961665987968445
10,11,0.396433296547748,2.9531769776312267,0.8606987952205074,0.00530664250254631,0.8334496021270752,0.15805384516716006
11,12,0.3683381640603495,2.006721188039808,0.30371930125280544,0.7499734163284302,0.1404196172952652,0.09333314001560213
12,13,0.5511874702650811,3.691664644945656,1.2933238506720524,0.0006630978314206004,0.19038783013820648,0.8088932633399963
13,15,0.36296959348724417,1.7912677095153329,0.2688090334096681,0.2706620395183563,0.2330255061388016,0.3005604445934296
14,16,0.5125455297813281,3.9804141436435314,1.5300608237564763,0.635094940662384,0.22415770590305328,0.11147930473089218
15,17,0.44718938891085785,2.788148743376159,0.40905918549205456,0.00014447326248046008,0.7973461151123047,0.20237722992897034
16,18,0.6028131785787939,1.7280674227815394,0.6539816390813568,0.002022726228460669,0.6284843683242798,0.36922451853752136
17,19,0.44466117294560203,2.3181218970096977,0.6414784353950903,0.2902520000934601,0.4111142456531525,0.2956577241420746
18,20,0.5071041958276004,3.1779401993462533,1.1881446724402214,0.001500065089203417,0.8832648396492004,0.11468250304460526
19,21,0.5519095991391099,2.564163028975248,0.8144632789254641,0.004094820003956556,0.6095466017723083,0.3853377401828766
20,22,0.4168369192821708,3.124498992381304,0.9161262806176524,0.051187887787818916,0.706048846244812,0.23849964141845706
21,23,0.4068564374694493,4.231375803966763,1.78627433114495,0.0026172534562647343,0.5779628753662109,0.41917744278907776
22,24,0.4552517186332025,5.244740496926641,2.211452582412446,0.0007866279920563103,0.2681294083595276,0.7310008406639099
23,25,0.3648916888750773,2.4676186147703154,0.8087910069818283,0.003256368916481733,0.4729344546794891,0.5212951302528381
24,26,0.4046921748745417,3.0462530305895097,1.0063003939063973,0.003955795895308256,0.8285247087478638,0.16521632671356198
25,27,0.2470688962970325,4.97969648532159,2.1802500775976887,0.0023392888251692057,0.8212785124778748,0.17452694475650787
26,28,0.17533269382548652,2.605444095453538,0.3973393443043334,0.02442068234086037,0.5367223024368286,0.4135319292545319
27,29,0.3328658836484851,4.075320907139289,1.47700214395733,0.08017894625663757,0.5885027647018433,0.32319721579551697
28,30,0.3989337334551509,3.7084939632553513,1.1994604133593232,0.011532099917531012,0.4994735419750214,0.4809658229351044
29,31,0.5367214159627247,2.169166232158719,0.6623000858296096,0.0007758258143439889,0.7923195362091064,0.20630542933940887
30,32,0.6818161247312385,507.3121792008091,61724.81980876815,0.002627516398206353,0.6457085013389587,0.35051286220550537
31,33,0.43488590668809707,1.9097732326523504,0.5121277875786753,0.0002013399644056335,0.9105958938598632,0.0878409743309021
32,34,0.3799201208756812,2.727808977069712,0.9954412978460888,0.5038799643516539,0.38749539852142334,0.1031944304704666
33,35,0.2777651566810535,3.2655933255707885,0.7870934724515931,0.010003342293202877,0.2767386734485626,0.710464358329773
34,36,0.6327920975457403,2.1930831956917163,0.7737017242265076,0.002066165441647172,0.8112131953239441,0.18573440611362452
35,37,0.2008784114531256,1.2392941558404398,0.14688000185050007,0.02518707700073719,0.8132665753364563,0.1606975644826889
36,38,0.6038929649731632,2.3159244441835463,0.8008730377236296,0.3745393455028534,0.39310768246650696,0.17063623666763306
37,39,0.4418257709343866,3.2022422620781583,1.0087761437537848,0.002137902658432722,0.9230413436889648,0.07452140003442764
38,40,0.4035104682943466,3.819741720379376,1.444069221734558,0.0005741716595366597,0.8980395197868347,0.10093554854393004
39,41,0.6020567748936221,1.3879539998329091,0.4550354282656105,0.0014943304704502225,0.7664600014686584,0.2313198745250702
40,42,0.8993847919840768,0.9367412219855256,0.8343974459681172,0.28167062997817993,0.4562831521034241,0.2565228343009949
41,43,0.5380445987147857,2.5867225655842283,0.9112151560404721,0.801693320274353,0.002388708526268601,0.19588954746723167
42,44,0.7239388089169783,2.945032109914784,1.1851315586772817,0.0021582271438092,0.872908353805542,0.12351427972316742
43,45,0.35680507039105064,3.30166209939254,0.9428647234216332,0.0016644587740302086,0.17338372766971588,0.8248490691184998
44,46,0.5852568187379382,2.567335688734852,0.8419379112933282,0.002401343546807766,0.8155949115753174,0.1808571219444275
45,47,1.288273045505261,1.4130125840915098,1.6717887334614236,0.026112137362360958,0.3544537127017975,0.6171221733093262
46,48,0.3891392558666784,1.9512848938086944,0.5312206127588205,0.780823290348053,0.0007455532322637737,0.218427374958992
47,49,0.3932307435884486,1.1132809985100167,0.31847245219242004,0.19424551725387573,0.4733068346977234,0.27590832114219666
48,50,0.4059196501512881,3.6848294630942786,1.2859838683165594,0.8774340152740479,0.0803184062242508,0.039026588201522834
49,51,0.5538230472954655,3.7269537474243455,1.5707893351769733,0.0007897712057456374,0.5665745139122009,0.4323431551456451
50,52,0.6837754487789006,4.418442563608659,2.061803559168911,0.000293689692625776,0.8480026721954346,0.15142972767353058
51,53,1.0678987565149118,1.7505989029612732,1.3743835710481789,0.00015838144463486967,0.13537251949310306,0.8644490242004395
52,54,0.5289619270023885,2.711650958259197,0.7752220266611378,0.12918467819690704,0.01811561919748783,0.8525321483612059
53,55,0.5568852287213367,4.159744853419843,1.806944195152108,0.0020555437076836824,0.8923435211181641,0.1044597253203392
54,56,0.4077319998329732,2.185500638002786,0.5142168467076198,0.0015428417827934027,0.4206562638282776,0.5776943564414978
55,57,0.7120216477475334,2.1935034560698385,0.8656039827427103,0.017460128292441368,0.8369145393371582,0.14319248497486115
56,58,0.4377868897757507,2.0574777861035063,0.6234795567080315,0.0030725805554538965,0.02020760253071785,0.9766625165939332
57,59,0.46264573028302,3.2887915769477494,1.344187172844944,0.002186000579968095,0.8578395843505859,0.13870058953762054
58,60,0.5662181076791022,2.9634974141085992,1.0107811414331809,0.0018902379088103765,0.3799971342086792,0.617756724357605
59,61,0.8014089925425859,2.5766988723852404,1.2475306602954073,0.0014347304822877054,0.7260020971298218,0.27173876762390137
60,62,0.4493840974057679,3.509112209361237,1.3805613127026972,0.002406881889328361,0.029408756643533707,0.9681721925735474
61,63,0.5463551971987198,2.8623477762623217,0.9246994729492879,0.005313913803547621,0.3107280731201172,0.6826910972595215
62,64,0.5965375668240526,1.7182845890421796,0.5329298079298841,0.0026077148504555225,0.8656604290008545,0.13055068254470825
63,65,0.9744034408131306,2.7406306179554583,1.4596414537741116,0.4539429545402527,0.328696072101593,0.2014120817184448
64,66,0.744721827326287,2.208164562041373,0.8530341225280554,8.034836582737627e-07,0.000330581417074427,0.9996685981750488
65,67,0.6183924322574887,4.7978747032926785,2.0478547688702418,0.0176450964063406,0.5602034330368042,0.42124852538108826
66,68,0.4556437327492404,2.4115549021256992,0.6153916961328579,0.0002776731562335044,0.2691939473152161,0.7304643392562866
67,69,0.6006846372760833,5.008991124227332,2.283107419483376,0.0007471262360922992,0.7925996184349059,0.20639704167842865
68,70,0.2966693925921424,4.198383063298893,1.3229507526694972,0.0005291163106448948,0.5067181587219238,0.4926497340202332
69,71,0.44385741376621,1.8663617966450736,0.5077551463406761,0.0046552526764571675,0.6909224987030029,0.3001376688480377
70,72,0.4326746292839212,4.399075074539974,1.7843785557330467,0.03803539276123047,0.7139404416084291,0.2407021522521973
71,73,2.1579186435584325e-05,0.7937959754035179,0.2315072938067473,0.0031279574614018197,0.4590381979942322,0.5331644415855408
72,74,0.5625269679451002,2.363197672299488,0.7783672659293462,0.2321750968694687,0.4281105697154999,0.25188860297203064
73,75,0.599600054147853,1.6848430906225236,0.6269014998004829,0.0046823634766042215,0.9009299874305724,0.09406989812850952
74,76,0.5452535964845839,2.3295890993156694,0.7560004294731785,0.8151066899299622,0.09167410433292388,0.09192917495965958
75,77,0.6962232633329789,2.3033199707405205,0.8725962925091026,0.0026097176596522327,0.8319395780563354,0.164141446352005
76,78,0.6500818297276085,1.4697925060847628,0.5363649787519151,0.1162932813167572,0.5556245446205139,0.3255976140499115
77,79,0.431414769677255,1.078621231796262,0.3338284960383661,0.3451932370662689,0.2944497168064117,0.3561272323131561
78,80,0.4259349132023417,3.2608593944448936,1.2054796559545904,0.025846144184470177,0.2594115138053894,0.7136059999465942
79,81,0.4074446628564352,2.6372716274742585,0.7757077560599417,0.009684810414910316,0.5941439270973206,0.3934759199619293
80,82,0.6458173785683571,5.541383270573518,3.8678284257858366,0.046379514038562775,0.7762256860733032,0.16280469298362732
81,83,0.4705828841665034,2.122436109719036,0.7961226903151801,0.179189071059227,0.01935330592095852,0.8014553785324097
82,84,0.380624696672673,1.9661202429922104,0.4587314619559101,0.06394977867603302,0.7418770790100098,0.18828535079956046
83,85,0.38434933673201616,3.4432488717554595,1.0960742837321669,0.013431024737656116,0.7968718409538269,0.18672345578670504
84,86,0.4131136209010337,3.535236313491819,1.2052951788232305,0.0011168394703418016,0.7880330085754395,0.2095627933740616
85,87,0.41470439318780267,1.6626766806472644,0.37162069537378856,0.0002043226122623309,0.8827032446861267,0.11675341427326202
86,88,0.5435720606618629,4.435015452335537,1.861266228034257,0.1016402617096901,0.59295254945755,0.27689167857170105
87,89,0.3406454151565144,2.785071951635499,0.7964056169198628,0.00039993468089960515,0.5114291906356812,0.4879459142684937
88,90,0.7562088546975693,4.412554679495241,2.2151377190789483,0.008894212543964386,0.7722578644752502,0.2181817889213562
89,91,0.5702918906142878,2.0813512032295614,0.6467441325550858,6.816397944930941e-05,0.015545383095741272,0.984384059906006
90,92,0.15706440637520552,1.1149344141188873,0.14144541862972818,0.12788026034832,0.6638907790184021,0.18800850212574005
91,93,0.9853312393231756,3.901139062105132,1.7090027342565646,0.07986970990896225,0.3140682578086853,0.5921218395233154
92,94,0.6688843946047534,2.470722651722828,0.9610160874666279,1.0010231562773697e-05,0.031410589814186096,0.9685789942741394
93,95,0.48797822328412704,3.2398129591506164,0.8682921988297508,0.001005588099360466,0.6260656714439392,0.3726440370082855
94,96,0.5451680097923869,2.7625021030678365,1.1011807824185156,0.0007964500109665098,0.10570824146270752,0.8934555053710938
95,97,0.4628238966344118,2.1464871717097207,0.4806975200947965,0.0010431006085127592,0.8484826683998108,0.14972089231014252
96,98,0.437181230341762,3.0456925748537533,0.9060930689081652,0.019263876602053642,0.3320505619049072,0.6480159759521484
97,99,0.8100575850909644,2.513369164546293,1.1428166620416875,0.01313212513923645,0.7004629969596863,0.2820201814174652
98,100,0.4469802170164426,3.3568643147553754,1.1281943551690097,3.0426805096794848e-05,0.002071121241897345,0.9978983402252196
