,event id,width,length,azwidth,p_spot,p_track,p_worm
0,1,0.6745557039731236,14.797567996196479,142.99218622611778,6.944231427041814e-05,0.9538126587867736,0.04594436660408974
1,2,0.7648601208415328,9.327031864072564,54.59981530225818,0.02560374885797501,0.15391981601715088,0.820270836353302
2,3,0.4265191334110292,7.299882210489043,35.815727187444296,0.0020491359755396843,0.983220100402832,0.014519995078444481
3,4,0.34975937240853083,18.970731673654388,232.4021937771716,0.000478024740004912,0.9790329337120056,0.01752350479364395
4,5,0.4691493595987928,14.750578249909196,136.335837789045,0.06935042142868042,0.7196065783500671,0.2106846272945404
5,6,0.4922015157379342,8.504705613773401,46.57209783305189,0.6397042274475098,0.07988574355840683,0.2803754508495331
6,7,0.4968509887719727,8.323808179818577,44.51942823909441,0.00046241955715231603,0.8778174519538879,0.12113269418478012
7,8,0.3973959637600172,10.642809434847804,72.85142821302027,0.0017568462062627075,0.8717535138130188,0.10562864691019057
8,9,0.4354973511227879,9.601840007105585,56.61534116946522,5.779698403785005e-05,0.9862288236618042,0.013561615720391272
9,10,0.4387873754043728,20.054729536299703,262.29514522252845,0.041034262627363205,0.7514815330505371,0.17876212298870087
10,11,0.5825968368756628,12.925111579440793,108.43651267327739,0.017132030799984932,0.7676116228103638,0.2147072404623032
11,12,0.7109367581988156,18.855282310047237,224.8349180696064,0.004743380472064018,0.6604900956153871,0.333503782749176
12,13,0.42883716264034216,14.84081296666993,138.02893113310844,0.016646428033709526,0.4062987864017487,0.5508700609207153
13,14,0.4809302178176128,13.722156486414152,122.35201608489186,1.4978348190197721e-05,0.9936762452125548,0.0062933750450611115
14,15,0.5824197173290433,18.458330754483885,220.08857903783687,0.0005267769447527826,0.8097462058067322,0.18871352076530454
15,16,0.7423448182205968,16.201266461020186,165.16049404398726,0.00037196712219156336,0.030161395668983463,0.9694283604621888
16,17,2.78821562476983,20.56681905802453,179.48611685251583,6.747992756572785e-06,5.891985347261653e-05,0.9999339580535888
17,18,3.181181484329916,142.67441989603003,6270.5079352073435,0.0006015789695084095,0.9341322779655457,0.06517083197832108
18,20,0.457845461003851,13.218532400073302,108.9163892684161,0.00013415684225037694,0.9907665252685548,0.009080974385142326
19,21,0.2340141924025245,8.942582882713339,48.304097734041996,0.000149103143485263,0.9892452955245972,0.010513301938772202
20,22,0.5608482605654489,3.4561897347715087,8.354491672331232,0.017504598945379257,0.8455062508583069,0.1359352022409439
21,23,1.52587890625e-05,15.627760019512431,158.61695430799568,0.0009649816784076393,0.9519851207733154,0.04677988588809967
22,24,0.2902984509216096,16.80558295512656,178.0671313435365,0.014910125173628332,0.9527794122695924,0.028951944783329964
23,25,0.4666911149913374,11.91091847671248,87.87590308386277,0.22474965453147888,0.5128065943717957,0.1883622407913208
24,26,0.3796722099022566,2.5675829891637294,4.087860908725129,0.1303911805152893,0.8104411959648132,0.05792227014899254
25,27,0.32801944207702066,25.3816929757423,404.98529081416274,0.0055823209695518025,0.9228978753089904,0.06523185223340988
26,28,0.4871861435925754,24.505468952734798,376.81271396545486,0.00015438755508512259,0.9925948977470398,0.007200155872851609
27,29,0.3147300092704077,12.543749476853645,98.63769268559318,7.324751641135663e-05,0.9939589500427246,0.005887478590011597
28,30,0.4939487428585827,17.103878963034767,188.49538583154597,5.911966945859604e-05,0.9834255576133728,0.016184313222765926
29,31,0.4145476742418772,11.937239390716979,88.05468844793795,0.16288352012634275,0.6821544766426086,0.15184462070465088
30,32,0.3622321516358957,2.8534032871713246,4.729828894460644,0.013119460083544254,0.7360803484916687,0.239311084151268
31,33,7.317612624406741,241.68170069503185,58179.379054172605,0.0026212423108518124,0.9442611932754515,0.05162781476974487
32,34,0.4986446244964053,15.494232070137267,157.94725058541184,0.7174844145774841,0.01032654382288456,0.272089958190918
33,35,0.6472569610829609,8.10717512045272,41.35641931355021,0.00043533940333873044,0.4823088347911834,0.5167718529701233
34,37,0.21328625767140247,20.046619522354906,261.386107321326,0.0006127192755229771,0.13739144802093506,0.8619283437728882
35,38,0.42573005509109696,11.518329746922069,83.96752236359845,6.978970486670732e-05,0.9880824089050292,0.01058510970324278
36,39,0.4903056323977489,17.265019166814152,190.37720464821405,0.0022541335783898826,0.9829421043395996,0.014450021088123322
37,41,0.4644207583513802,22.767236974396265,341.36145714928136,0.0001520430960226804,0.9874556064605712,0.01228165440261364
38,42,0.769271724412552,3.5287347812730716,8.067893161625431,0.06918357312679291,0.8155044317245483,0.11370731890201567
39,43,0.5245459199290253,5.671737929570661,17.708225282689842,0.004799254238605499,0.9590882658958436,0.0334305465221405
40,44,0.4827697699844698,7.710447987446187,38.34567850213188,4.439026088220999e-05,0.9907740950584412,0.009084035642445087
41,45,0.3663838381374025,11.415578860476911,80.62321228470982,0.005455655045807362,0.13077186048030853,0.8635497093200684
42,46,0.6382168718000151,19.37064595122481,242.6068999193432,0.005707787349820137,0.5896727442741394,0.4031144976615906
43,47,0.2111151850755768,11.69609157060701,89.67568991583002,6.858424603706226e-05,0.956641674041748,0.04318411648273468
44,48,0.7275103891116994,23.82080340154593,350.3145839264592,0.21800006926059728,0.6459815502166748,0.1012573465704918
45,49,0.30178871995836,5.649044890390222,20.054743331449803,0.4913527965545654,0.10639381408691406,0.40167102217674255
46,50,0.4711312247323128,13.194369758681786,108.2244391850571,1.148375577031402e-05,0.9962652325630188,0.0037163202650845046
47,51,0.4976888395063173,11.823467385919653,89.73344898842826,0.010878562927246094,0.7234249711036682,0.2653988003730774
48,52,0.4969492448419938,10.640499702316797,72.53235151305505,6.451050285249949e-05,0.9932414293289183,0.006662999279797077
49,53,0.5889629986951129,5.886733092807411,21.630336101984163,0.0016991880256682634,0.9650699496269226,0.032513074576854706
50,56,0.3741637546929791,10.901228056542463,74.23163771536584,0.0005202779429964721,0.9757999777793884,0.02163472771644593
51,57,0.3118087162790335,20.822114842706387,262.07943977502845,0.0005752465804107487,0.967990517616272,0.03044577501714229
52,58,0.463882716648553,19.01764358672569,222.8564787618108,0.002151520224288106,0.9002447128295898,0.09605700522661208
53,59,0.4542138706098845,17.53410048535152,212.14067522719918,1.921612783917226e-05,0.9970144033432008,0.002950043883174658
54,60,0.4132414327756265,7.362643204137733,33.24208700017508,0.0062631010077893725,0.9158765077590942,0.06887036561965942
55,61,2.5898697835231688,81.85513040387957,3042.704726373169,0.0036500089336186647,0.9044411182403564,0.08280276507139206
56,62,0.4975527199707975,7.275806582953942,32.72682484649571,9.360074909636752e-05,0.9875186085700988,0.012367808260023594
57,63,0.37642255210982895,7.490308216380639,35.112119234595355,0.008101952262222767,0.8957688808441162,0.09516182541847228
58,65,0.5435111565696766,9.683474312835868,60.47678540716733,0.004210471175611019,0.9684929251670836,0.026383722200989727
59,66,0.3771028093137205,10.241807405687648,63.990315526757755,0.0006302121328189969,0.983871579170227,0.015436231158673763
60,67,0.4986753878927974,6.695054374036619,28.576815115130838,7.776732672937213e-06,0.9957438111305236,0.004216903820633888
61,68,0.4473948567612023,18.39008125942461,219.91007638877312,0.0004624990106094629,0.9726191759109496,0.026873787865042686
62,69,0.4295128917948512,15.001199268037848,142.39546684025945,0.0003616843023337424,0.9664652347564696,0.032963093370199203
63,70,0.4730968441659745,6.721448702940171,28.49682582751707,0.0007292257505469022,0.9778549671173096,0.02121102437376976
64,71,0.5826928772994883,18.883325558395352,231.1173474554697,0.0003745166177395731,0.9785740971565248,0.020731061697006226
65,74,0.4688727095860223,16.811948179554225,174.25433446378503,0.00015503809845540673,0.9694361090660096,0.030313752591609955
66,75,0.6732992237065851,7.647943775413059,37.561234056584155,2.7603114176599775e-06,0.998518168926239,0.0014741147169843314
67,76,0.3777831155477728,10.693625322551648,72.23222551850776,0.0034554151352494955,0.8601738214492798,0.1356145590543747
68,77,0.5773233356179579,11.276644326143744,82.89667175032065,0.006769082508981228,0.8558559417724609,0.13569793105125427
69,78,8.555874827985814,134.2509145131701,13956.398730289073,1.929223071783781e-05,0.9877693057060242,0.012147857807576656
70,79,0.3439595541457417,11.612978006949543,87.57054552386053,0.13509312272071838,0.4189212322235107,0.4399644732475281
71,80,0.5963712494231178,21.390898141749663,288.5903453396365,0.011150475591421127,0.7641143202781677,0.22355808317661285
72,81,0.4948811097931536,14.506311742601161,135.72431697859992,0.0006049844669178128,0.9858908653259276,0.013074677437543869
73,82,0.3571363069476981,15.731759507023899,153.39995268174982,0.00012815181980840862,0.9887641668319702,0.010838705115020277
74,85,0.5063548120409065,15.572624547424386,155.93323225549756,0.03672002628445625,0.12012418359518053,0.8400287628173828
75,86,0.3892935922333711,16.619763589619588,175.39417132950456,0.8819392323493958,0.08982110768556595,0.013201172463595869
76,87,0.8244423728210452,18.764179137157786,226.3478406230423,0.009478310123085977,0.6510962247848511,0.3386595249176025
77,88,0.0,18.77419154657866,223.11051807960297,2.1315622689144215e-07,0.0037769933696836224,0.9962133765220642
78,89,0.6211655002039939,20.089722404288466,262.5399594087071,0.00010840807954082264,0.996297299861908,0.003590359119698405
79,90,0.4788359818467216,28.526562911148844,518.118775654981,0.711328387260437,0.09037171304225924,0.18552808463573456
80,91,0.6108270856930711,19.078653877303086,237.30767015024185,0.00027195338043384254,0.8333531618118286,0.16608604788780212
81,93,0.4644379424056101,9.416624696242957,58.52610795552204,0.2996525764465332,0.5968548059463501,0.08387898653745651
82,94,0.3487256993001407,3.2605899849340982,6.705779588512711,0.0004913945449516177,0.983182430267334,0.016070887446403503
83,95,0.5510057919278936,6.0815172785591125,24.028893619130827,7.207396265584975e-05,0.9956865310668944,0.0041792909614741785
84,96,2.9119305881135715,6.5399052384968055,41.98853932599712,1.5999718016246334e-05,0.9929815530776978,0.006965683773159982
85,98,1.008899163316182,9.638841527624034,58.33579654291192,0.00888061709702015,0.7674086689949036,0.21860015392303467
86,99,0.4630145115149367,13.312471140839962,110.60081938484717,0.006387382745742798,0.013057490810751915,0.9805538654327391
87,100,0.3141622958750218,8.121104868839153,43.243329788967635,0.0008255242719314992,0.9660529494285583,0.03114884346723556
