,event id,width,length,azwidth,p_spot,p_track,p_worm
0,1,0.3572614700035073,2.7498164220994403,3.6594338592044644,0.000814115337561816,0.8823467493057251,0.11665257811546326
1,2,0.5107775404345307,2.6947475016851627,3.5653182211941017,0.003521717851981521,0.8935215473175049,0.10236210376024246
2,3,0.6693878235105801,1.9664418623341748,2.1789420391440144,0.1408298909664154,0.13471797108650208,0.7227453589439392
3,4,0.627016194905276,4.295193507878459,8.968691018240758,4.897874168818817e-05,0.41219326853752136,0.5877051949501038
4,5,0.3852839485584682,2.6190671558194,3.6192677399003848,0.00294098979793489,0.8480138182640076,0.1471623331308365
5,7,0.40004768506690697,2.3877960055729823,3.0166345160938746,0.08272024244070053,0.5001924633979797,0.3592605292797089
6,8,0.4689642829369192,3.7257715535427334,6.358990816067151,0.002023526467382908,0.7940849065780641,0.19921763241291046
7,9,0.4603222703993129,3.030165076413589,4.519125322482915,1.1512489436427133e-05,0.9610926508903505,0.03887910023331642
8,10,0.26433273928580503,2.9829432627133503,4.504901893232159,0.0015342944534495473,0.8592281341552734,0.13741201162338254
9,11,0.5027592378158117,2.566298556914417,3.173043838252381,0.00011984215234406291,0.9251222610473632,0.07467401772737503
10,12,0.36313927197945095,2.6137910720845037,3.3518011602063007,0.00045492473873309786,0.9259270429611206,0.07331527024507523
11,13,0.38998154305226296,4.655990165389388,10.367381249533436,0.004805988632142544,0.7003400921821594,0.2915109097957611
12,14,0.6198783915245774,2.463885022401413,2.983994439367951,0.00034210862941108644,0.6831578016281128,0.31565433740615845
13,15,0.21738629401109394,2.8560701375498483,4.517917800809544,0.0026273962575942282,0.905176281929016,0.09193497896194458
14,16,0.415291897588584,2.3748545600812774,2.6751239478891704,0.0033276209142059088,0.7581673264503479,0.2377298176288605
15,17,0.3436682616508273,1.5044213565434672,1.2136933227213895,0.00212237099185586,0.4590429365634918,0.5382639765739441
16,18,0.4643582191878287,0.9826850411329708,0.574283763631122,0.007017145399004221,0.7439360022544861,0.2446957379579544
17,19,0.4366755017142685,2.563784836299353,3.3426982700544365,0.4841765761375427,0.32741349935531616,0.1853046715259552
18,20,0.4599118415120612,3.686213827634487,6.032248756160108,0.009771626442670822,0.8852850794792175,0.1043073982000351
19,21,0.6533665442347153,2.2193809055490084,2.6049840098223656,0.00018569655367173246,0.7599489688873291,0.2395385503768921
20,22,0.5801637736796017,1.6370014787710847,1.3723386485084919,0.07161633670330048,0.34001025557518005,0.5845938324928284
21,23,0.39959449572921785,1.813930229147324,1.64683913208246,0.0075080213136971,0.6535031199455261,0.3375893831253052
22,24,0.5959532669928533,3.8804266202044086,7.603590517244632,0.05526378005743027,0.8538890480995178,0.09012378007173537
23,25,0.5287640488466082,4.30407777986939,8.466508384549831,0.0001723954628687352,0.2406635880470276,0.7590847015380859
24,26,0.4141550467496175,2.738894367362439,3.7673876722257513,0.00011327411630190908,0.5455318689346313,0.4540994167327881
25,27,0.5436844929747717,3.5695371865665466,5.827224557744403,0.0030822535045444965,0.5960603356361389,0.4001278877258301
26,29,0.4924389402674339,3.039249066181584,4.6451665620392735,3.4188429708592594e-05,0.7691047787666321,0.2307706624269485
27,30,39.66449693561455,232.2112820238424,48773.798699146806,0.016311638057231903,0.7073694467544556,0.27219980955123896
28,31,0.3686897296651606,3.9919632834119123,7.684919823767923,0.0010368654038757086,0.9247599840164183,0.07354865223169328
29,32,0.3852675665287319,3.726314812685152,6.328259657151293,0.0022029783576726913,0.7858738303184509,0.21123859286308289
30,33,0.4192814509911382,3.2618811516361133,5.087648254755492,5.728823816752993e-05,0.6635021567344666,0.33640679717063904
31,34,0.5655313942029935,2.4837921548409114,2.9066069027876966,5.3466614190256216e-05,0.8797955513000488,0.1200961321592331
32,35,0.7633960151409779,3.4239848443426317,5.90129871105913,0.0010220130207017064,0.8929114937782288,0.10561521351337433
33,36,0.5250415291519637,0.8010797988567517,0.4428732611771041,0.004709838889539242,0.853422999382019,0.14086510241031647
34,37,0.09181499365553833,2.7297675624008395,3.774136870061208,0.0001470180141041055,0.15798945724964142,0.8418231010437012
35,38,0.409497461803359,2.1334476105911397,2.4088421854434685,0.8397703766822815,0.051969192922115326,0.10803574323654176
36,39,0.35153427150982525,1.3221589936928908,0.7167591827457699,0.017024869099259377,0.7251747846603394,0.2545771598815918
37,40,0.4032275045966624,2.6221186745538567,3.7110368675418615,0.00045865177526138723,0.9510127902030944,0.04847506806254387
38,41,0.5001050526413672,2.7559679689934704,3.639551593265819,0.006079140119254589,0.7660931348800659,0.2267758250236511
39,42,0.4652322008102314,3.0660694508192536,4.409774958375607,0.0015530013479292393,0.9047151207923888,0.0929916650056839
40,43,0.2809095778870631,1.7601646951347545,1.5297035632993663,0.008500749245285988,0.7788107991218567,0.21228748559951785
41,44,0.5081894618287606,3.0666621783797234,4.2161298970571455,0.002991579240188002,0.288501650094986,0.7080835103988647
42,45,0.3233884921559282,4.408991734729499,9.459936605930851,0.009873288683593271,0.414372980594635,0.5753222703933716
43,46,0.44337127098552975,1.6395373009896197,1.6530609305288702,0.0007170065655373037,0.8779107332229614,0.12122731655836105
44,47,0.2827859224736816,4.17991398690352,8.397846549979164,0.007749904878437519,0.5080496072769165,0.4683215618133545
45,48,0.0,0.7471551435589152,0.35651987169183885,0.0067839594557881355,0.8473871350288391,0.1439606249332428
46,50,0.3854689766738364,3.967612393323437,7.485179813576307,0.0037891508545726533,0.5669918656349182,0.4242903888225555
47,51,0.732502145674808,3.346227917993418,5.4764096983424615,0.02716189064085484,0.6961057782173157,0.273348331451416
48,52,0.3164929797572925,2.4768100446903185,3.083333381107018,0.16619902849197388,0.4440632462501526,0.347037136554718
49,53,0.8085852873042971,3.960621620190228,7.468389920826612,9.80358017841354e-05,0.8331180214881897,0.16673247516155246
50,54,0.3203330287738614,3.960276899392,7.8486606751625825,0.00017826075782068074,0.21262837946414948,0.7870753407478333
51,55,0.4720935520406914,1.9065105228236017,1.9300791316831083,0.000461543764686212,0.8907139897346497,0.10839685797691344
52,56,0.35710279645509024,2.758528967931754,3.600392370520477,3.86222054657992e-05,0.014745090156793594,0.9852139353752136
53,57,0.4037117326326789,3.0299447983287666,4.496815267993563,0.02010185457766056,0.5447981357574463,0.41009169816970825
54,58,0.9092642997660121,32.341112476754,761.7350816291481,0.016503199934959408,0.8777132034301758,0.10548166930675508
55,59,0.3775455498063496,2.8247839743889047,3.550333204886088,0.0005298567702993751,0.8948132991790771,0.10429523140192032
56,60,0.8451226235296321,2.4358904212469104,2.982617058515242,0.0031118032056838274,0.6667891144752502,0.3263956606388092
57,61,0.5176816870569566,4.951333134208504,11.403785955327635,0.07702132314443587,0.025611158460378647,0.8971712589263916
58,62,0.5058718099655968,3.661677848081703,6.4277776177896415,0.005646203178912401,0.7293088436126709,0.2633098661899567
59,63,0.4498458508359851,2.596211961848126,3.1136913342090384,0.00014899775851517916,0.008782711811363697,0.9910674691200256
60,64,0.4255534416741077,3.4955386160878064,5.788004618192692,0.0002484937431290747,0.6008914709091187,0.3986247479915619
61,65,0.5847125552560459,2.4301239271570565,2.8267715619903964,0.00012126281944802031,0.14230628311634064,0.8575352430343628
62,66,0.4371231305194777,3.755175702388129,6.620060226885988,0.0015530078671872616,0.901382565498352,0.09642059355974196
63,67,0.11280795808901806,2.9322253223928416,4.1935539944096405,0.00026325887301936746,0.7403599619865417,0.2592667937278748
64,68,8.63393731130182,96.56514182731264,178.32145863972923,0.004639422986656427,0.8646811246871948,0.1300956755876541
65,69,0.3675392470728561,2.647814113053064,3.2098048105150845,0.00012157767923781648,0.8913793563842773,0.10838454961776732
66,70,0.41333614263573537,3.2345680159617722,5.343638676856711,0.0021443287841975693,0.7760118246078491,0.2214088886976242
67,71,0.5358714401520859,2.8171715906013906,3.906858196486875,4.5797883103659825e-06,0.007748320233076811,0.9922471046447754
68,72,0.4019764312134989,2.3776615430216737,2.6699056908425542,0.0018245144747197628,0.8678361773490906,0.12940624356269834
69,73,0.3835164860323918,2.6490360271342177,3.3802871005456825,0.00034752991632558405,0.7909356355667114,0.20760710537433624
70,74,0.4147832364219878,2.4037843601880424,2.71271515494278,2.3335644073085863e-05,0.9661993980407716,0.03375290334224701
71,75,0.4387394159523609,1.430365068978518,1.057786610973338,0.0007383730844594537,0.916308045387268,0.0827033519744873
72,76,0.5251419861662203,3.9056686535082017,7.144785635568006,0.0007093723397701979,0.9137747287750244,0.08527573943138123
73,77,0.3974309117414451,1.4534549223618485,1.0522903830885824,0.0007237343234010041,0.8827338814735413,0.11618617177009585
74,78,0.44614293309605096,3.9341881883628167,7.208276615158478,0.3896243274211884,0.4796176552772522,0.1294548213481903
75,79,0.534390858691364,2.5317104743398158,2.9803710683562894,0.0001561204408062622,0.4677848815917969,0.5320289134979248
76,80,0.3663558657921888,3.734896008094685,6.382035222022713,0.010651027783751488,0.601697564125061,0.3859434425830841
77,81,0.6710825866614267,3.304508911295032,5.1518931720931525,0.00010443669452797621,0.7998830676078796,0.1998836100101471
78,82,0.4675838715576395,0.7179874281643919,0.31284146685200664,0.003889848245307803,0.19596292078495026,0.7997832894325256
79,83,0.3694550487667439,3.2639714172021037,5.140234296715256,0.00026747980155050755,0.6560240983963013,0.3433381021022797
80,84,0.8184727625982541,2.7480752961333974,4.0186107629584304,0.00039685764932073653,0.6422553062438965,0.3571864366531372
81,85,20.831901408936766,72.43022718831006,4746.915324062345,0.4430756270885468,0.3739299476146698,0.16764333844184875
82,86,0.6611172249961076,4.474840635559637,9.757270549907203,0.004102362785488367,0.700244128704071,0.2936145067214966
83,87,0.3309654261198777,3.267257808929783,5.344010787771307,0.00012164624786237256,0.04379695653915405,0.9560735821723938
84,88,0.4110519497276946,3.754892465501008,6.7681493827301535,6.119776662671939e-05,0.4487276375293732,0.5512069463729858
85,89,0.4234262012151021,2.6632519082860617,3.2449344390781563,7.331051165238022e-06,0.09139391034841536,0.9085970520973206
86,90,0.4096623273822378,3.204921682324767,4.621369713168601,0.0009511652169749141,0.6557140946388245,0.3428584337234497
87,91,0.4496943314197517,0.9152905491944866,0.4658535396417971,0.00019942565995734185,0.7933709621429443,0.20618824660778048
88,92,0.3910792602333481,2.3860375716785143,3.06899214848577,0.003462305758148432,0.8434914946556091,0.15125790238380432
89,93,0.5641846087764294,1.4101982239842237,1.1050625001809529,0.00015322190301958472,0.9330312609672546,0.06663444638252257
90,94,0.3688350924048342,2.765080573550984,3.629912893887677,0.012069733813405035,0.19837327301502228,0.7891981601715088
91,95,0.4456178466300437,1.160635021200475,0.7394111024785962,0.0005738386535085738,0.9138579368591307,0.08526059240102768
92,96,0.33544487677872725,2.349599216015504,2.8640955874257963,0.01721576601266861,0.8181808590888977,0.16140763461589813
93,97,0.5227964019653252,2.8027025064962103,3.8415468321381114,0.0028469990938901893,0.8645620942115784,0.13190361857414246
94,98,0.4989516318821127,2.8809799779801297,4.369249740115474,0.6055137515068054,0.28814896941185,0.10268688946962357
95,99,0.7002506815595058,0.915793295864602,0.7087299014219672,0.0026676792185753584,0.82261061668396,0.1738424003124237
96,100,0.535575289752908,2.6363162324010565,3.197532258991207,0.000622101069893688,0.9246664047241212,0.0745811015367508
