,event id,width,length,azwidth,p_spot,p_track,p_worm
0,1,4.835431871232909,193.74482884150046,1863.807488216933,1.7346130087858569e-09,1.717336635920219e-05,0.9999828338623048
1,3,0.8885336653141926,67.0565172502283,436.3881729377293,0.9023962616920472,0.011874236166477205,0.08572453260421753
2,5,1.017583852098562,25.42869255789993,34.70693722271171,0.11219561100006104,0.06061413139104841,0.8268699645996094
3,6,1.0187897631321328,68.0160748862967,1028.9419190438464,0.187122642993927,0.003969276323914528,0.8089003562927246
4,7,0.9293786216721566,36.340031022993344,0.9570004093676836,0.3143531084060669,0.5976133942604065,0.08797740936279297
5,9,0.3561721706191529,5.538826483099932,7.234882867830831,0.0005636460264213383,0.9864039421081544,0.013018333353102207
6,10,0.6503193225628311,2.7315820082958124,3.7461423459847403,0.0006099763559177518,0.2323997765779495,0.7665922045707703
7,11,3.0049286250912703,238.21061114303672,5166.694807228208,0.00773911364376545,0.8715949654579163,0.12006967514753344
8,12,0.4071627592851174,12.756486894879535,51.291578188936064,1.9723844161489985e-05,0.9758608341217041,0.01890176720917225
9,14,0.6125160098542297,66.97004073469158,3.084780894280524,0.00038087309803813696,0.9772088527679444,0.02239404432475567
10,17,0.567710383004502,10.304570563506696,10.459169126521383,3.2959585951175534e-05,0.993093729019165,0.006863333284854889
11,20,0.7498550624888477,32.226349034278215,0.603246100733677,0.006492003798484802,0.1149936243891716,0.8785054683685303
12,26,1.3819596025924743,65.31533482965153,625.4650394801597,2.0165216483292166e-06,0.997642695903778,0.002355075674131513
13,29,0.9635248894464976,96.18829101214666,2596.531637030508,0.004059060476720333,0.18164628744125366,0.8142483234405518
14,31,0.4554985428056869,22.768883312814822,175.92250458144684,0.04491475224494934,0.235662579536438,0.6248797178268433
15,32,0.8857724132994215,23.21851923226545,231.2443014098546,-1.0,-1.0,-1.0
16,36,1.4371806707174315,46.93549829124754,32.876357580369394,0.9728052020072936,0.0008920727414079008,0.026300204917788502
17,39,0.4552403221998028,7.2767448153966905,43.89848439709812,0.0014471547910943627,0.2602525949478149,0.7374329566955566
18,40,7.499117716842504,708.2917122626054,1317.1818087357071,0.008356224745512009,0.03995577245950699,0.9516869783401488
19,42,0.7778011362536345,6.1039777221967615,21.278783500945142,0.0001131136814365163,0.0055298181250691405,0.9943549633026124
20,43,3.9553057647866736,358.3144007008326,6910.1703627393945,2.4307491912622936e-06,0.9984627962112428,0.0015343868872150779
21,44,1.1986864590551871,90.8582218394239,98.50548890298184,0.0005687317461706697,0.056348588317632675,0.9430821537971495
22,45,1.166393800771662,47.832510489384966,69.55040704451238,0.0011238079750910401,0.8508961200714111,0.14779360592365265
23,47,3.0365853009185364,453.04668080216265,20655.755435793202,1.55689590997099e-07,0.999630093574524,0.0003697557549457997
24,49,57.00539522408415,241.46727900665852,13172.987561034362,0.0005414197803474963,0.9519606828689576,0.047458719462156296
25,52,1.1128316559344105,47.23590998947649,254.54328537754256,4.3937870941590525e-05,0.21622022986412048,0.7837181687355042
26,55,1.0275497357160328,26.748163552437358,92.6687581585935,0.0023320899344980717,0.2506626546382904,0.7469773292541504
27,56,1.9911443893655512,63.08501042874981,1861.8821441503385,-1.0,-1.0,-1.0
28,58,1.453405427473588,34.73111897131216,406.4420045783931,0.003494889009743929,0.69493567943573,0.2986357510089874
29,59,3.6234225931025237,92.34607070646857,1241.432638868772,0.00010680109699023888,0.8997235894203186,0.10016107559204104
30,63,0.5451604807168824,35.60221958497884,747.4557465359923,-1.0,-1.0,-1.0
31,66,1.3923663393605994,44.49622069141763,743.1488282267462,0.008991366252303123,0.8892756104469299,0.0923616662621498
32,67,0.9057873692569056,3.2202101415695856,5.647882635059602,-1.0,-1.0,-1.0
33,68,0.7536903528798999,26.599065060898837,44.00532821341856,0.00017492630286142233,0.9638842940330504,0.035902127623558044
34,70,0.8473389259710981,62.281602343010704,631.1809614237014,2.1243458832032047e-05,0.9823139905929564,0.01765768975019455
35,73,4.172708507099477,128.2537707422967,3971.1220703520003,5.0200898840557784e-05,0.9315491914749146,0.06839792430400847
36,75,0.911405481971802,31.35311615159399,151.20861466398242,8.019438973860815e-05,0.9304824471473694,0.06943541765213013
37,77,2.760087691771526,96.35024193239086,7667.661684356773,0.9998996257781982,2.440577918605413e-05,7.489051495213062e-05
38,80,5.874276802206992,132.35010221427626,2122.7007278075776,0.00024420052068307996,0.03543587774038315,0.9643072485923768
39,84,0.7487111965134936,56.54349926844402,672.6279893006463,0.988842248916626,0.0007577602518722415,0.0007782987668178978
40,85,12.26385857230896,173.72862314365008,12621.911667577182,1.0567760000412818e-06,0.9903163313865662,0.009661465883255005
41,88,0.927621226147007,19.527298718071133,92.01515526115772,0.017571233212947845,0.5803982019424438,0.4013063609600067
42,91,0.928794718717884,42.15496830528205,196.1025201713349,0.5345950126647949,0.044935017824172974,0.4204569458961487
43,92,1.765678585091674,74.59145650843809,1542.2768329816204,0.027434634044766426,0.2297910302877426,0.7427728176116943
44,93,0.9334715455660106,0.9600433487467768,0.8880370497150379,0.03407950699329376,0.11950705200433732,0.8463839888572693
45,94,1.3918772710092342,149.01274048902243,3540.766338675453,0.943966031074524,0.020700886845588684,0.035296186804771416
46,96,0.8514559533389993,45.11878966981934,287.27125584179174,3.413859417378262e-07,0.9988533258438108,0.0011460818350315096
47,97,28.352370638996053,42.08738594114961,808.5594278992183,0.06077064201235771,0.016228826716542244,0.9229999780654908
48,98,5.402099877623884,129.1909568759445,509.19966935764086,0.0001329246733803302,0.07126245647668839,0.9207828640937804
49,100,1.627417917070337,97.19245801201605,383.45647612632837,0.9060007929801941,0.0050036138854920855,0.08899121731519699
