,event id,width,length,azwidth,p_spot,p_track,p_worm
0,1,0.3894796019335428,4.382972437670911,0.3149224493700521,4.30121190220234e-06,0.9614956378936768,0.03843908756971359
1,2,0.17950565283556244,2.0541044411418925,0.11886302576586492,0.00472914706915617,0.9204784035682678,0.06972580403089522
2,3,0.5289454006263812,5.035578488796234,0.32695533192447324,3.5061402741121124e-06,0.928312122821808,0.07167696952819824
3,4,0.3177256862713022,5.230523313942427,0.2973241416288175,0.009453343227505684,0.8015102744102478,0.1656230390071869
4,5,0.3849791654413252,3.234082514402046,0.3122101935966444,3.8470574509119615e-05,0.9732866883277892,0.026556897908449173
5,6,0.7383003597846705,2.0400333717313366,0.5967034964957025,0.014578687958419325,0.3315715491771698,0.6512588262557983
6,7,0.6166388327264598,5.274611277220759,0.5142468364737721,3.848137930617668e-05,0.8783293962478638,0.12113156914711
7,8,0.6813367934704287,1.8387359365908,0.4810770070667198,0.016595151275396347,0.3400224447250366,0.6425976753234863
8,9,0.6973120648107889,4.192000990613418,0.6358838570732691,0.009587082080543041,0.2886100113391876,0.7006598711013794
9,10,0.4163856991652454,3.237803955234849,0.4330166748074472,0.000167840116773732,0.9388492703437804,0.06082887202501298
10,11,0.5530122240335955,5.4528836726178165,0.5684976483072857,0.00019946496468037367,0.92086261510849,0.07882042229175568
11,12,0.5695047783428405,5.043861239500945,0.38198586787039696,8.573921513743699e-05,0.916451930999756,0.08252504467964172
12,13,0.4431446978174565,2.166409720087036,0.302904551008058,0.0009359687683172524,0.9152454733848572,0.08361556380987167
13,14,0.3472549677552958,5.172553578638076,0.5575381821839638,3.0642459023511044e-05,0.9814354181289672,0.017194224521517754
14,15,0.2959645788330451,5.9879926728569295,0.3932121763733285,0.004412859212607145,0.7142964601516724,0.2776236832141876
15,16,0.6108803617942987,4.224734498790331,0.7814040128667277,0.00017099740216508508,0.8857754468917847,0.11393149942159653
16,17,0.6677297601655624,4.474821891379505,0.8393485363828622,0.002188484650105238,0.21786047518253326,0.7790727615356445
17,19,0.39815488381765096,4.433615322629056,0.5577151934427329,0.07733502984046936,0.5061146020889282,0.2378726005554199
18,20,0.4079080868496308,2.9032629450652783,0.2709591757799289,0.0022999211214482784,0.8091245889663696,0.1855827271938324
19,21,0.6627621546105857,1.5647842994009855,0.4558603889533914,2.2749689378542826e-05,0.9766309857368468,0.02305394224822521
20,22,0.298735781959337,1.386488522557369,0.12195085187671613,0.0016726939938962464,0.9093825221061708,0.08793234825134277
21,23,0.5573559589253766,5.44458232341148,0.5486621566880835,0.0007239694823510945,0.8648492693901062,0.13109570741653442
22,24,0.4238887331687811,4.804513690917188,0.6391138720565551,0.00010240661504212768,0.8103882670402527,0.18932116031646729
23,25,0.2972918244982561,2.079659753198692,0.15541752695745029,7.426113734254615e-05,0.9746262431144714,0.0247772429138422
24,26,0.4642594976904517,2.678940525086768,0.3626236229512815,0.0014061620458960533,0.7465728521347046,0.11835270375013353
25,28,0.40357843713628455,5.345126901348033,0.7661683462536879,0.0007746586343273518,0.8122717142105103,0.1864461749792099
26,29,0.17719671875728293,6.746882519117489,1.0461259464671662,0.0015686372062191367,0.8195711970329285,0.05860119313001633
27,30,0.4620771775124767,3.0921898761066986,0.4184966099519409,0.00034991157008334994,0.8444724082946777,0.13606449961662292
28,31,0.3402826555316852,5.719149255796119,0.3363211804891305,0.0013743668096140027,0.7865054607391357,0.20871008932590485
29,32,0.2374950368963556,2.8443977797743965,0.14171215875559098,0.0003087027871515602,0.7677833437919617,0.23120227456092834
30,33,0.9021905791541645,4.411207029746801,0.8724111217208694,0.12421461939811708,0.22071702778339386,0.6543712615966797
31,34,0.40704489698410895,3.014917974577049,0.2731226841802005,0.004153394605964422,0.7825368642807007,0.21123738586902616
32,35,0.5278446138906998,4.83927287800893,0.599697506111693,0.0013736113905906675,0.17298585176467896,0.8254758715629578
33,36,0.05622214940691014,3.41508350699844,0.2913843970599705,0.0001365635835099965,0.9799903035163879,0.017549650743603706
34,37,0.2935670756815937,1.043757360077979,0.08745672565675111,0.058088336139917374,0.5007503628730774,0.3919132649898529
35,38,0.2704975219953353,5.2507397587594715,0.6076136018013503,0.006609945092350245,0.7196174860000609,0.09626341611146927
36,39,0.4163548077033068,5.882676027023739,0.7437868604872752,0.4875752925872803,0.14025713503360748,0.15765579044818878
37,40,0.3894625040303664,0.9498888488305544,0.20731476705537866,0.0012899743160232902,0.8874675035476685,0.11075109243392944
38,41,0.4508159286775275,5.440631911761494,1.0583605753413643,0.0007259169360622764,0.8067925572395325,0.18901841342449188
39,42,0.3550252683554205,5.796707848589616,0.5957626000999935,0.005296940449625254,0.8579227328300476,0.12676608562469482
40,43,0.4097060965118656,4.106432172988965,0.3297800947856593,0.00032205242314375937,0.9043643474578856,0.09504446387290956
41,44,0.4174178683935229,6.191479966257668,0.7824602415335307,0.0001820908073568717,0.6435367465019226,0.3562198877334595
42,45,0.3417937089716612,3.874956145197526,0.3305360554528028,1.0534404282225296e-05,0.98786062002182,0.011984509415924549
43,46,0.49268906257137,5.271452052973582,0.525567292547937,0.00018799147801473734,0.9407211542129515,0.05539138242602348
44,47,0.3178806732585498,2.1147332228418487,0.16230661031382562,0.0013800146989524364,0.8969763517379761,0.09210658818483353
45,48,0.21819069334478647,5.400001474792874,2.999778682544963,2.1194134660618147e-06,0.9913296699523926,0.008332755416631699
46,49,0.8913855875667657,3.5770209615682917,0.9001189947878209,0.00012199919001432136,0.9316834211349488,0.06779487431049347
47,50,0.40886194047723545,4.171654397491599,0.20964631569034534,0.00038000274798832834,0.8242107033729553,0.058903202414512634
48,51,0.6370071981844594,4.188807470903125,0.6049970400885152,0.0007962407544255258,0.2611915171146393,0.737991988658905
49,52,0.4555662384620135,3.832088007376658,0.3964761958454816,2.107023647113237e-06,0.9814498424530028,0.018303077667951584
50,53,0.4779960302838552,5.767917887816077,0.6746155771626962,0.0011259294115006926,0.6741466522216797,0.3238554298877716
51,54,0.38633226882079535,4.376067991344404,0.3613864376832679,0.001486935536377132,0.8453877568244934,0.15274445712566376
52,55,0.3733459459217649,2.6056308759142333,0.3330272533531849,6.169324478833005e-06,0.9566311836242676,0.04329262673854828
53,56,0.4171359555926697,3.507674739782464,0.3583029833341673,8.86495254235342e-05,0.9727894067764282,0.026994958519935608
54,57,0.4261250487037085,5.381390920818753,0.6921947822372972,0.00013874270371161399,0.9689868092536926,0.02096274495124817
55,58,0.5454769905950709,4.262656367518331,0.656196928394475,3.4438605780451326e-06,0.9773316979408264,0.02264615893363953
56,59,0.478884791384007,3.086499177223644,0.3790015289021249,7.512875527027063e-06,0.9666640162467957,0.03324925899505615
57,60,0.349150832629022,0.887667091509553,0.1681844823980393,5.857643554918468e-05,0.9497002363204956,0.04946053400635719
58,61,0.575611389800269,3.4980176509880034,0.4365585057424527,0.0001898879563668743,0.9669299125671388,0.03214530646800995
59,62,0.7071511466601916,3.244466853027823,0.5715036455180321,0.01048657577484846,0.8847382664680481,0.09085918962955476
60,63,0.7067475346905491,4.028853508218899,0.8370640733444855,0.0016462510684505105,0.7995670437812805,0.1979687064886093
61,64,0.5379878843342629,4.1169014210604455,0.3625279350146691,0.005493165925145149,0.5679739713668823,0.4253882765769959
62,65,0.3999769017222757,4.8193951757327325,2.9866950809559416,0.0033617529552429914,0.5559574365615845,0.4395241141319275
63,66,0.4018404569778696,1.683089964786056,0.2565122041018073,0.0002208257355960086,0.4907211363315582,0.5090038180351257
64,67,0.3022146652607159,1.875078014352208,0.13271013584900287,0.0002826123673003167,0.12583468854427338,0.8732858896255493
65,68,0.3791851324037581,5.5751081988138775,0.5913197337091307,0.00018025551980827004,0.9707434773445128,0.02727922424674034
66,69,0.20559666422494613,4.314485438218399,0.39732812443567256,0.0005151916993781924,0.9305366277694702,0.05712771788239479
67,70,0.3058270995169583,5.971332832243032,0.9680059390120715,5.688902092515493e-06,0.9702215194702148,0.02961201965808868
68,71,0.281203777834708,7.0795460545266105,1.1285936941136754,0.5696877837181091,0.16463781893253324,0.2646552324295044
69,72,0.3701018489202516,5.608647921439856,1.1393875079950626,0.00020795330055989325,0.9077203869819641,0.09197157621383667
70,73,0.4563820613289145,3.499560713118537,0.3212739893983433,3.1193576432997354e-05,0.9091941714286804,0.0879022479057312
71,74,0.35240393488214955,1.7965543550817478,0.2673405770100156,0.0007198494859039782,0.9122242331504822,0.08631079643964767
72,75,0.2927612313679133,7.206992121904251,0.7800513533545351,0.0003612571163102984,0.9090439677238464,0.08107565343379974
73,76,0.41684785724069945,4.150901909967576,0.2847967858670078,0.1839567720890045,0.5756350159645081,0.23874977231025696
74,77,0.4621314597443951,2.4278186440615888,0.3976933734811693,9.77603758656187e-06,0.9660536646842957,0.033761363476514816
75,78,0.3347930511052799,5.274342848477968,0.3595557161971753,9.869801579043268e-05,0.9429407119750975,0.056707963347435
76,79,0.26377298507593416,2.127306586610465,0.08370789262247083,4.2858868255279965e-05,0.9778987169265748,0.021878290921449658
77,80,0.4631267571978067,3.5125069618311606,0.4611778362115455,0.0014692405238747597,0.8030557036399841,0.1950366199016571
78,81,0.2560414402996212,3.6150332318153056,0.3203008446307915,0.0010991139570251107,0.9490925669670104,0.037975840270519264
79,82,0.4110345047636229,3.130729330655011,0.3203752836779153,0.00016284422599710524,0.9680220484733582,0.027538102120161057
80,83,0.5585872441689976,3.766251291630748,0.8486021862579798,0.006595342885702848,0.8716906905174255,0.12105367332696915
81,84,0.29728726647478504,3.7134157530108864,0.2512183809010584,0.0003870038199238479,0.9404763579368592,0.052474495023489005
82,85,0.5748171707608052,4.320490014038346,0.5694611019086077,3.863759957312142e-06,0.9939305782318116,0.0060510318726301185
83,86,0.3046773179609041,1.9054384599393384,0.17306787513006122,0.00014168294728733602,0.956089198589325,0.0416572168469429
84,87,0.4055802858547141,4.689465871412868,0.44973218752252175,3.69998742826283e-05,0.9505115151405334,0.04936801269650458
85,88,0.2553402823868038,7.134815166997645,0.8115351403782469,6.363924330798909e-05,0.969566822052002,0.0300896130502224
86,89,0.3581390613156185,4.422456075081246,0.5679895567053879,0.0002444688871037215,0.9454023241996764,0.052938755601644516
87,90,0.3242903927563223,3.468651718421879,0.1732227160393628,0.0002460055984556675,0.8174580931663513,0.18201497197151184
88,91,0.4605688255949139,3.4357568716763174,0.34594615819745284,0.0031677347142249346,0.7840548157691956,0.20762725174427032
89,92,0.7114505808799313,3.8887166639897854,0.6800157559115362,5.294466973282397e-06,0.9784099459648132,0.02135518565773964
90,93,0.5525944350826727,8.049140683778061,1.1649347222199955,8.222112955991179e-05,0.9854359030723572,0.013482240028679373
91,94,1.4479079085911688,2.695620248935325,6.916089020642395,2.679149110917933e-05,0.9456489682197572,0.05429263412952423
92,95,0.3876571398415038,4.5827569313543,0.503916246190509,0.0023472059983760127,0.3668307960033417,0.6227177977561951
93,96,0.5598196043374641,2.6892889066964574,0.405652219006633,0.0011338229523971677,0.08492451906204224,0.91363525390625
94,97,0.04632153379419415,8.166095601984924,1.604919885220435,1.5638693184882868e-06,0.9877707958221436,0.012175532057881357
95,98,0.2401319078315685,2.436781043800233,0.08090093158975513,1.8655618987395428e-05,0.990505874156952,0.00944525096565485
96,99,0.5524335281971907,4.633471530881634,0.5604810920899536,0.002607568167150021,0.8747764229774475,0.07574671506881714
97,100,0.3469426726063402,5.519840108049285,0.7141995522806927,0.0008137794793583452,0.8069689869880676,0.1766595095396042
