,event id,width,length,azwidth,p_spot,p_track,p_worm
0,1,0.3325610148980025,4.7195578325842105,0.21768432769722704,2.9502793950086925e-06,0.996819257736206,0.0031483666971325874
1,2,0.3462377149466601,8.828232123920102,0.6268565522550289,0.010866386815905573,0.8515068888664246,0.12970155477523804
2,3,0.23618299095394946,8.865529573367287,0.46505668978276,0.047296032309532166,0.8717267513275146,0.07379619032144548
3,4,0.5890456091533736,2.7901623071855703,0.36003543312245595,0.0014949141768738627,0.6880183815956116,0.3059854507446289
4,5,0.229391519894692,4.967153339911927,0.1959629141908444,3.6041728890268125e-05,0.9882788658142092,0.011635440401732922
5,6,0.5305655768306277,4.099743458088981,0.39238409376444666,0.04767069965600968,0.8687003850936891,0.08312708139419556
6,7,0.3450780820792906,9.549787849798053,0.26210746529816314,8.721933409105986e-05,0.9952957034111024,0.0045063216239213935
7,8,0.4254573561792317,8.902919168327838,0.5378784569144632,3.93697882827837e-05,0.9750085473060608,0.024928649887442592
8,9,0.30572870330892965,2.758207007566184,0.09664479103009647,7.141467449400807e-06,0.9958315491676332,0.004033413715660572
9,10,0.4136661320274365,2.9495556040515454,0.17230878792032525,2.1532045138883404e-05,0.9936710596084596,0.006011563818901777
10,11,0.6131409988948552,2.658653522636878,0.3810585617000206,4.491440449783113e-06,0.9943713545799256,0.005614135414361954
11,12,0.3202551860695353,6.779589917548297,1.0131502096926766,0.02003141492605209,0.8702144622802734,0.10962104052305224
12,13,0.30458249849630403,7.677507362485214,0.5828928818545751,2.5863195332931355e-05,0.9910426139831544,0.008911598473787308
13,16,0.6509007535238402,5.9341486357377375,0.8558870442120132,0.020518524572253227,0.3056066334247589,0.6735973358154297
14,17,0.8118426392662321,5.7853649442965756,0.6604328143879947,0.01941733062267304,0.8072271943092346,0.11960582435131073
15,18,0.3984620676290772,3.0959706788733383,0.17159769880111952,7.903754158178343e-05,0.8226509690284729,0.17704841494560242
16,19,0.3546386714752769,4.03789359307374,0.20598920868951107,8.775557489570931e-07,0.9961219429969788,0.0038770458195358523
17,20,0.4002422762190789,6.065633939184371,0.2463186455972319,0.04234745353460312,0.7429061532020569,0.20746572315692904
18,21,0.5789391031588507,8.566467919944241,0.4305877422355419,3.389459095615166e-07,0.9987480640411376,0.001248398679308593
19,22,0.7030776641659731,3.042120503385193,0.5090971845421032,8.185359661183611e-07,0.9977637529373168,0.002193988533690572
20,23,0.30237066567742793,2.7646115243337848,0.11884991176076712,3.9353799365926525e-06,0.9808387756347656,0.01900947652757168
21,24,0.4422389204041901,3.049472146325747,0.2444055140610589,0.001542800455354154,0.7476810216903687,0.2484641224145889
22,25,0.4248385095685904,3.8785094007577374,0.21558051960833569,0.0006568724638782443,0.9713470935821532,0.027696024626493454
23,26,0.3103084104500937,0.7349679678898068,0.0962986330368094,0.001029689679853618,0.9126957654953004,0.08074912428855896
24,27,0.3702901624462251,7.496926577107242,0.39331216877953057,2.6782693112181732e-06,0.9949607849121094,0.004970430862158537
25,28,0.25898802412101,4.563625412246823,0.16465709644642634,0.3379668295383453,0.5124815702438354,0.1493796706199646
26,29,0.34444659573016856,5.174212449383574,0.3149571149536063,0.0019751156214624643,0.9788089394569396,0.01844434998929501
27,30,0.7852474023020807,8.011819830651971,1.1091409650621626,0.000111903776996769,0.9851300716400146,0.01348867081105709
28,31,0.286276705308057,3.661748390506428,0.08900144716162971,7.915691639936995e-06,0.9938872456550598,0.006070622242987156
29,32,0.2914055174351891,10.027893240711435,1.6393331330577054,0.000476862711366266,0.21567973494529724,0.7838431000709534
30,33,0.2688220325194433,4.583783392101549,0.14372714564101308,2.458293693052837e-06,0.9974638223648072,0.002390774898231029
31,34,0.8202458506239712,5.088605966445344,0.7379974659381053,0.024256641045212742,0.8436135649681091,0.1140049695968628
32,35,0.6148377574913401,8.650029937847544,1.380443421311233,3.6263725633034476e-05,0.9940503239631652,0.005872771609574556
33,36,0.5140585819313629,5.858057326194433,0.2834105437426307,0.001030103419907391,0.7243817448616028,0.27416154742240906
34,37,0.4582824321962531,8.143245834502276,11.227807226373887,0.0015135931316763165,0.9365006089210508,0.06178758293390274
35,38,7.0640284475147785,184.57302731759563,7406.668002013394,0.0010686657624319196,0.9681260585784912,0.030793678015470505
36,39,0.3739582841775425,4.2025066598393135,0.21726196521778168,0.0003947395016439259,0.9824733734130859,0.0171115230768919
37,40,0.42680586348921534,5.3419270652505775,0.2310106905680165,1.5384455764433372e-05,0.9981130361557008,0.0018715002806857226
38,41,0.5501480891531491,4.845153329633599,0.5925406327553903,1.1404983524698766e-05,0.9882959723472596,0.011685315519571304
39,42,0.4799642471702515,0.503799826787482,0.2316968914733817,3.565124018223287e-08,0.9994211196899414,0.0005773188313469291
40,43,1.1543684262074947,3.178412625175616,1.4658627150052903,4.050366442243103e-06,0.9948339462280272,0.0049875532276928425
41,44,0.3318733528356093,10.63482803505766,0.9169215169315064,0.004642211366444826,0.9326732754707336,0.06236552447080612
42,45,0.34824070636429066,0.5391254266016191,0.12399427564160595,0.00011432747123762964,0.004678862169384956,0.9952059388160706
43,46,0.6443256065314383,8.067355920270705,0.5405725661746941,0.02407582104206085,0.7249763011932373,0.2466048002243042
44,47,1.629728706451175,555.9107619790747,13.184615418377785,0.02434656210243702,0.9282169938087464,0.04280609637498856
45,48,0.6423266173073184,3.961585043932507,0.4157360882271557,0.00023681638413108883,0.7699507474899292,0.2297711223363877
46,49,0.6693440711206723,8.976497737286083,1.3932201406683624,2.0015106201753948e-05,0.9414954781532288,0.058482255786657326
47,50,0.2967243289017407,9.913526208319979,0.18128799084270275,0.0006514685228466988,0.8561885952949524,0.14159218966960907
48,51,0.4495102984294605,5.946881471621318,0.4796415272230062,9.314037743024528e-05,0.9737961292266846,0.026105940341949463
49,52,0.29464306798369605,2.8083905900678343,0.09082299127910634,0.00026491135940887034,0.825390100479126,0.1701638251543045
50,53,0.4944281114403694,9.187921120451351,0.25062082468479285,0.08461172878742218,0.8225919604301453,0.08913649618625641
51,54,0.2457773017384558,7.8628296335070225,0.1105617464450477,8.511744817951694e-05,0.9828402996063232,0.01034635864198208
52,55,0.4455794890155853,4.077534254360537,0.3208722555886514,3.307715815026313e-05,0.98587566614151,0.013939045369625092
53,56,0.43037104685730143,3.1291926551552938,0.2340223780638068,0.3103256523609161,0.5810151100158691,0.10582289844751358
54,57,0.3823138053794649,5.711739251661147,0.3888994546685268,0.007361975498497486,0.21838727593421936,0.7741699814796448
55,58,0.4520655041316474,7.087933700155225,0.7541147853144345,0.00012035796680720524,0.9861648082733154,0.01014299038797617
56,59,0.4019301571706249,3.2618981784117014,0.2062833560742968,0.00013929628767073154,0.9782360792160034,0.02009228989481926
57,60,0.4190186588766867,2.8681477425657538,0.1840033388945572,6.320552984107053e-06,0.9895055890083312,0.010086648166179657
58,61,0.13565884840550002,5.4527134420739545,0.3854120864054711,1.0675736348275677e-06,0.996450901031494,0.0035421082284301524
59,62,0.6162330024704925,7.652284537840577,0.5920779712023032,0.000360695063136518,0.9636752605438232,0.02634003199636936
60,63,0.3754176035995993,7.061628382515801,0.14232522403964787,0.0017167272744700313,0.9342652559280396,0.047947734594345086
61,64,0.33149875667015355,5.998695370980643,0.3789406458585053,0.0005907446029596031,0.7859933376312256,0.21335050463676453
62,65,0.6510053048154829,1.763917665981544,0.4620458429401901,0.0026652091182768345,0.835016131401062,0.16228069365024567
63,66,0.13187409401858755,1.3925581313800992,0.02036771501509876,0.00013179297093302011,0.9754974842071532,0.012166009284555912
64,67,0.4240693168313859,3.5174824344046782,0.2373785553434503,0.002101457677781582,0.6136521100997925,0.3832047581672669
65,68,0.26315700365367595,3.060669775502672,0.28735876719086034,0.6676267385482788,0.2819599807262421,0.04062281548976898
66,69,0.4923525440286214,6.935879113289626,0.30665256807838803,0.00021389331959653648,0.9863816499710084,0.013381796889007092
67,70,0.4485971619674882,7.8439052996614915,0.4799411382979923,0.0029876395128667355,0.8571801185607909,0.04840803891420365
68,71,0.6536263548941378,7.391730247474188,0.4392464171242154,0.00025430339155718684,0.253060519695282,0.7466691732406616
69,72,0.37830000664534336,7.883459058839527,0.19881869600867932,0.0003293724439572543,0.9282628297805786,0.07035134732723236
70,73,0.7434330574806858,5.772582079784613,0.5548660092948526,0.0009942606557160618,0.9782951474189758,0.02066746540367604
71,74,0.3166598780140737,4.919454873073475,0.15950498087951984,0.00021215713059063998,0.9488879442214966,0.043251439929008484
72,75,0.30324326801406626,4.208519711534412,0.10876699856770962,0.00018641552014742052,0.7864995002746582,0.2132502645254135
73,77,0.25765299797560226,6.466460466018642,0.4890999567285281,0.8787808418273926,0.007478093728423119,0.11373835802078247
74,78,0.25876016214244923,8.058257965761598,0.470480492260573,2.389107430644799e-05,0.9900187253952026,0.009930848143994808
75,79,0.4336810537074789,9.785893635122967,0.9514751664319068,0.009379240684211254,0.9455986618995668,0.02971891313791275
76,80,0.21923523445143686,4.597805817227513,0.04955732627787536,0.00032300333259627223,0.9724512100219728,0.010357948951423168
77,81,0.4211766667222711,1.8922518622670983,0.18607319835645453,6.015865437802858e-05,0.9903873801231384,0.009388073347508907
78,82,0.5405194359381431,5.731305479667583,1.113742194230538,4.330015599407489e-06,0.9860251545906068,0.013961615972220898
79,83,0.5951877031404194,1.6285037993841345,0.3579459172614195,0.03790554031729698,0.9014344215393066,0.05988333001732826
80,84,0.4238371338297558,7.518089705952558,0.429395197785053,9.424810559721664e-05,0.9933626651763916,0.006514397915452719
81,85,0.34441613635829343,8.422143427581236,0.5882238225206319,8.993074516183697e-06,0.9890803694725036,0.010898388922214508
82,86,0.3318419646485101,6.874171152462549,0.18546578416830387,0.02130870148539543,0.6527770161628723,0.3211921155452728
83,87,0.3290382508355465,6.8142744674197235,0.7967309046970783,5.028730356571032e-06,0.991172969341278,0.008786452934145927
84,88,0.30961628274963005,2.342363979294503,0.15075742455555285,4.211501072859392e-05,0.9859098196029664,0.012003367766737938
85,89,0.2409130988392548,6.8554897228826,0.09242940125930277,2.663010673131793e-05,0.9932623505592346,0.0058990861289203176
86,90,0.4844036372081545,4.171617439492735,0.4382643370676275,6.1546143115265295e-06,0.9912434816360474,0.008745640516281128
87,91,0.33284182465574474,2.187601059945193,0.16409552894496215,0.07163222134113313,0.6937893629074097,0.2333742678165436
88,92,3.207550724079446,482.71194103739737,222806.0244139743,0.031250249594450004,0.8960667848587036,0.0701138898730278
89,93,2.456023687087571,470.32507212814414,210505.04440540264,2.5040621039806865e-05,0.9757545590400696,0.02185698039829731
90,94,0.6009277098035581,3.3538538855472217,0.3646099660844895,0.00022939377231523397,0.9888589382171632,0.010526854544878006
91,95,4.401330012629405,7.948328344457472,58.547841993203754,0.016335431486368183,0.7723912596702576,0.2019526958465576
92,96,0.40380838949867176,2.6211833950734555,0.3817981473473625,0.010707608424127102,0.15707792341709134,0.8321152329444885
93,97,0.4482461933047967,6.6564101119887065,0.3177275577080079,5.187283022678457e-06,0.9947718977928162,0.005164604168385267
94,98,0.6416084675824683,4.924521163415101,0.6864292568522342,9.8896289273398e-06,0.07334459573030473,0.926629602909088
95,99,0.3258407504643905,3.921759128704492,0.10705479886568414,0.000132951550767757,0.9842878580093384,0.015524567104876041
96,100,0.4354702579426013,2.9921850238832617,0.2189505954791421,5.5687123676761985e-06,0.9916153550148008,0.008290262892842295
