,event id,width,length,azwidth,p_spot,p_track,p_worm
0,1,0.35843701002231554,24.17185157306116,157.91392533070214,0.16003306210041046,0.6362473964691162,0.1894885152578354
1,2,0.3440048161613768,10.939888092666486,38.58774664141957,0.029057912528514862,0.1253724992275238,0.06198353320360184
2,3,0.41593613157068055,19.45837128252101,109.21487530678587,0.001663701725192368,0.9459565877914428,0.045306317508220666
3,4,0.4707301373468295,20.20316631566637,133.01916229886348,0.638339102268219,0.2643227577209473,0.07103529572486877
4,5,0.4983640970606849,17.19375677968417,108.83661264606084,0.12772804498672485,0.1629338413476944,0.3358281254768372
5,6,3.6725995934050752,16.846509232425348,158.19663816750258,7.959190251316528e-11,1.1118566334289427e-07,0.9999996423721312
6,7,0.5087060188607704,7.9026223666789015,20.95170946877886,0.038606103509664536,0.01978496089577675,0.0604475848376751
7,10,0.989296494389356,11.057465034803851,56.86027840425154,0.1701912134885788,0.5960186719894409,0.15942250192165375
8,11,0.3632690528219982,21.282444185690558,194.11112381996625,0.0015117147704586387,0.8524812459945679,0.11044680327177048
9,13,0.5112671283803172,6.170796199298867,25.24510796299985,0.2257342338562012,0.01957581378519535,0.7546083331108093
10,14,0.5067288631181996,6.071707884057248,10.330081409181398,0.008175930939614773,0.8644984364509583,0.11780422180891036
11,15,0.4893847377604838,20.15007824065216,105.32985940777927,0.013116084039211271,0.2992759644985199,0.2644681930541992
12,16,0.689893822828385,19.577184259108748,149.77615246065528,0.005441860761493445,0.2975297570228577,0.6838168501853943
13,17,0.493109339871969,12.959773000453053,60.099047670020894,0.0021871174685657024,0.7874764800071716,0.19653281569480896
14,18,1.5258789062489526e-05,6.512781946975548,3.193748118671871,0.003223661333322525,0.15243655443191528,0.8355579376220703
15,19,0.710018096589912,13.153841093883988,41.85207940192472,0.0069734868593513966,0.4874204695224762,0.4942418038845062
16,20,0.4285148989491627,16.033506755550142,112.14106669458229,0.00017127589671872556,0.9837987422943116,0.014721389859914781
17,21,0.4355456084415817,10.746538160886299,38.779214548179844,0.027599172666668892,0.06449538469314575,0.9065163135528564
18,22,0.5521860525363397,12.927898534483154,80.08259837323698,0.00015496712876483798,0.9236221313476562,0.06749486923217772
19,23,0.5814187570717744,5.618863149675993,8.134450529257583,0.00022143121168483046,0.9307398796081544,0.06241415441036224
20,24,0.5979853728931118,10.893735548420816,5.7259674988691796,0.009934121742844582,0.4036052227020264,0.5826412439346313
21,25,0.5388664824226607,22.818035794790827,329.06092622474165,0.0009883639868348837,0.5996478199958801,0.3958708643913269
22,26,0.4342043903564575,5.582468850188029,17.063157767492775,0.025919049978256226,0.41400596499443054,0.5516664981842041
23,27,0.4191987191987979,22.272149741094648,176.45651153099766,0.013183637522161009,0.6379895210266113,0.3451743423938751
24,28,0.3966966416031227,11.413756589311983,35.121274096013444,0.0009113386040553453,0.8532775044441223,0.1437564194202423
25,29,0.0,0.4849415040856288,0.12943339968236026,0.007753785699605942,0.377449631690979,0.5219425559043884
26,30,0.4564850682550337,7.164793391168266,21.376124345901736,0.000929409172385931,0.8324149847030641,0.14985845983028412
27,31,0.6691494201429989,15.164008620149385,99.53375066687175,0.5903762578964233,0.14747726917266846,0.09280174970626832
28,32,0.3813112427693008,5.2553355291627595,16.791579013127834,0.0008844551048241557,0.7918045520782471,0.05638210475444794
29,33,0.581682555015829,11.670266163536079,68.71987295971792,0.03691507503390312,0.08968234062194824,0.8709607720375061
30,34,0.5805040304403721,13.979640046144235,72.15455126217522,0.09840252250432968,0.6769613027572632,0.2181980162858963
31,35,0.4448323104241231,15.336934850000244,80.83981989033063,0.0024215129669755697,0.7300267815589905,0.2582381069660187
32,36,0.4743805814903079,3.8468597201857992,6.994312805094768,0.6643410921096802,0.05438091978430748,0.2669683992862701
33,37,0.5133278905937246,14.434114014660675,75.22111430273381,0.092416912317276,0.7521688342094421,0.1410239189863205
34,38,0.5323103089800905,25.967286528321036,301.3186758735408,0.0007324881153181195,0.6983144879341125,0.2956695258617401
35,39,0.4084316259426695,11.819043814685955,76.46416258977493,0.0009381327545270324,0.7652115821838379,0.2150335907936096
36,40,9.109987013948993,128.45053089606355,15207.754245380691,0.0003739646926987916,0.947627067565918,0.049595337361097336
37,41,0.4681074548517759,26.54346812421037,411.51292813708,0.004146895371377468,0.7276778817176819,0.15394623577594754
38,42,0.9865097950830246,6.520754427495833,14.549972168709136,0.001779278623871505,0.8944587707519531,0.10152053833007812
39,43,0.5646458787726923,7.16552958215299,2.73316420066267,0.0001763788895914331,0.9584352970123292,0.036311760544776917
40,44,0.4159914328807847,19.265141788273773,87.4404138276944,0.003326462348923087,0.0068164030089974395,0.9898489713668824
41,45,0.4153668748907388,22.64460575941245,334.8605510924913,0.009362805634737015,0.5675207376480103,0.3896735310554504
42,46,1.5258789062476981e-05,8.784395860357284,32.00584892794681,0.0008170257788151503,0.8725345134735107,0.10718242079019548
43,47,0.5239275641583505,4.944186338380453,2.4134343020682825,0.5573934316635132,0.2303337454795837,0.21020865440368647
44,48,0.6585777121386289,12.326809692537914,55.995160496964786,0.010923173278570177,0.22376973927021027,0.1293237805366516
45,49,0.5219354368718497,14.82347962723288,142.90803524141427,2.448582563374657e-05,0.9629545211791992,0.03247006610035896
46,50,0.4211610677589396,7.0476348716886745,5.123895100738934,0.014988962560892103,0.045437492430210114,0.9389814734458924
47,51,0.3312463375491985,21.940466973728352,119.28300937163084,0.020720303058624268,0.6037726402282715,0.3394703269004822
48,52,0.9804473107570676,15.525364888896638,76.02036478774909,3.276316783740185e-05,0.9800409078598022,0.016759425401687622
49,53,0.34665592596404604,16.901927805476607,114.43552926010874,0.1172109842300415,0.04564213380217552,0.07940448075532912
50,54,0.571946667982915,9.412352224861165,35.09339436373147,0.9977962970733644,0.00014498022210318595,0.0020572964567691088
51,55,0.5812155880082135,21.198536573407054,120.48954871900854,0.004807441029697657,0.3246646523475647,0.11770591139793395
52,56,0.6249897445701689,19.29731532303453,125.17110097337593,0.007104272488504648,0.5930051207542419,0.3784684538841248
53,57,84.28148656452954,179.21313705238808,24742.566860348707,0.00046844221651554113,0.9622739553451538,0.03702539205551148
54,58,0.5429882465527516,8.993634071303287,25.61574954702823,0.0060115177184343355,0.1836620420217514,0.8066755533218384
55,59,0.3814102068607141,6.692099401989544,20.81178900990297,0.8758070468902588,0.006438606418669224,0.11756685376167295
56,60,0.3941049153394892,14.022417858227634,87.45573826650622,0.0014169077621772885,0.4240004122257233,0.5740575790405273
57,62,0.4097826287107905,10.51501090488089,33.17043968823642,0.002439312171190977,0.8806755542755127,0.10864058881998062
58,63,0.586225674347422,18.627390494294573,93.45168034165829,0.9507279992103576,0.018014239147305492,0.014383979141712187
59,64,0.6248937201378983,16.077459463773607,127.38362968626494,0.0013310093199834228,0.9520413875579834,0.0436701700091362
60,65,0.4967032652618548,13.849597384863644,72.76712909215394,0.6185619235038757,0.1381591558456421,0.07503621280193329
61,66,0.4020177152659896,13.885623932544162,54.82251255933004,0.6341534852981567,0.13678963482379913,0.20382267236709595
62,67,0.6232997844190543,9.888802930374514,49.28669397822221,0.0032776796724647284,0.6150149703025818,0.3771801888942719
63,68,0.7487076687056836,10.969332196402853,29.48654453005396,0.057500705122947686,0.3405202031135559,0.30203431844711304
64,69,0.7924593929708227,15.819004155097046,26.008819336317877,0.004850147292017937,0.1841712594032288,0.05244522541761398
65,70,0.42690398893400106,7.363181523212206,14.071055862272134,0.013824733905494213,0.4998801052570343,0.4793274104595184
66,71,0.34807876774825564,12.785157780824244,70.99203390734091,0.0009411206701770424,0.03772081434726715,0.9612792134284972
67,72,0.7004949228343961,10.106153722354831,27.46359678806365,0.09198704361915587,0.11378832161426546,0.7911000847816467
68,73,0.21170777783069844,8.427210662290076,15.60054432627152,0.0014911596663296225,0.6597664952278137,0.14298029243946075
69,74,0.5326903407262321,14.98593619841161,71.12347168652367,0.02310612611472607,0.515186607837677,0.4380910992622376
70,75,3.117888564326748,9.521724655047448,83.0700064110843,0.02581180259585381,0.12467434257268906,0.8481437563896179
71,76,0.5587123664706667,18.214437661125256,139.66495625079818,0.008466348052024841,0.09325899928808212,0.8981150388717651
72,77,4.122803512936054,19.4941537456498,55.47766606952672,0.001702821464277804,0.11978130042552948,0.8773884177207947
73,78,0.3059373611758173,24.54255187110352,156.3097996836222,1.0485855455044657e-05,2.4298729840666056e-05,0.9999650716781616
74,79,0.4122537392693412,12.811482141358516,5.0126898571367615,0.009283960796892643,0.1768401712179184,0.809785008430481
75,81,1.1077059689717994,17.3928330836117,41.49719088875264,5.8105795730512e-09,3.687552089104429e-05,0.9999631643295288
76,82,0.5028961290820952,9.357367868768684,48.35566281114435,0.0016990102594718335,0.955330729484558,0.035811033099889755
77,83,0.4169192815278495,12.95460576775916,62.28632522841402,0.0006634056335315107,0.6902028918266296,0.2264307737350464
78,84,0.344652101457664,15.815374572688448,136.94999033783787,0.0015882104635238647,0.0806565210223198,0.023391982540488243
79,85,0.4083706429080821,18.03331056828367,92.78662452488848,0.003756465390324593,0.0726378858089447,0.9220423698425292
80,86,0.7850929401909442,16.71266894987196,120.57525212358995,3.9712020225124434e-05,0.11504270881414412,0.8848786354064941
81,87,0.23572330745660305,5.497726806354391,7.257996003559126,0.015425577759742737,0.21495667099952692,0.11530619859695435
82,88,0.21823516024902784,13.460134256288786,61.87663043380171,0.03658908605575562,0.35558989644050604,0.15280646085739136
83,89,0.5193776943884303,14.097144965136346,72.41201189142889,8.376972982659936e-05,0.9654480218887328,0.033936016261577606
84,90,0.6038838071494249,7.427855669457128,27.04669448266776,0.5962653160095215,0.024065323173999783,0.3780142664909363
85,91,0.2335288493214559,13.911088169472075,57.91539072938608,0.015908829867839813,0.8225960731506348,0.15553009510040286
86,92,0.3479276262872137,13.981061359007573,115.82058884039795,0.0004569783923216164,0.9313042759895324,0.06647085398435593
87,93,0.5256832896396759,19.66447296902413,72.05657378700711,0.004038356244564056,0.4718218147754669,0.5198498368263245
88,94,0.4933355935843623,9.704058051798512,33.80659515241722,7.751533121336251e-05,0.611762285232544,0.38790324330329895
89,95,0.3270304352723486,10.01917971421831,51.45711565746908,0.003469074610620737,0.8187320828437805,0.04560283944010735
90,96,0.2789666251654545,13.211874271520136,59.98634003336178,0.03456134721636772,0.8585857152938843,0.10467863082885742
91,98,0.5795995171899564,15.629990343668965,141.18974796704802,0.005999804474413395,0.2853321135044098,0.7075464129447937
92,99,0.3921732597863034,13.250207330654662,49.28454204694127,0.009352901950478556,0.3697718679904938,0.6188411712646484
93,100,0.39211967882914456,10.005401622408966,10.58465718207816,0.005537640769034624,0.15678928792476654,0.8374561071395874
