,event id,width,length,azwidth,p_spot,p_track,p_worm
0,1,0.3470168364116135,7.456322947187735,9.167745365480982,0.010280264541506769,0.6018893122673035,0.2945503294467926
1,2,0.3915437412309682,9.435801423413649,17.405123061342493,0.0018766584107652309,0.1969970315694809,0.6811137795448303
2,3,0.4535185066192008,2.876220023166228,2.309624799831544,0.12974686920642853,0.3734652101993561,0.3104642927646637
3,4,0.30627655560791617,5.215331281682053,8.159077530212858,0.04258790984749794,0.3915642499923706,0.5610008239746094
4,5,0.6099068963854931,4.791941855804119,4.199645538663851,0.01477767061442137,0.14226578176021576,0.8355171680450441
5,6,0.2870218107777533,4.600809467134828,4.195073476133136,0.01697462797164917,0.5134290456771851,0.4647625088691712
6,7,0.29884862422129715,7.057628000954595,8.334685794651772,0.008215880952775478,0.7476715445518494,0.11518002301454545
7,9,1.1850859351484582,9.109426187389015,39.82716869655498,0.0071918475441634655,0.07881727069616318,0.028661971911787987
8,11,0.9980285685850714,8.042191622180626,10.947452569262516,0.0007676914101466538,0.050267394632101066,0.948170006275177
9,12,0.29991336169550514,7.1787055635336765,10.441832008019047,0.8918328285217285,0.01727769337594509,0.015282339416444303
10,13,0.4880466990978719,70.76070616408347,33.19406114588785,0.0002669474051799625,0.05079462006688118,0.9487852454185486
11,14,0.3668686506102486,9.009071704900649,21.394105614759177,0.12074553221464154,0.6552145481109619,0.14584732055664062
12,15,0.29809711863492144,4.347638504713272,3.4184696394641274,0.9722077250480652,0.009937576949596405,0.017810974270105362
13,16,0.36079127609232187,1.308912196015548,0.3659782587278088,0.17262209951877594,0.2499000579118729,0.5214704871177673
14,17,0.6552842825828388,7.344169226214715,10.997719477950893,0.736733615398407,0.11016450077295303,0.15251772105693814
15,18,0.3607472889338897,5.377980553416308,5.927050994655121,0.7591083645820618,0.10956884920597076,0.11840032786130905
16,19,0.31904474376888536,4.265987124724873,2.952010146066553,0.011273068375885488,0.14163732528686526,0.8470482826232909
17,20,0.3452634397023999,4.432042636003239,3.866221291802188,0.013186379335820677,0.5891544818878174,0.3968130648136139
18,21,0.41991755077287307,1.8660739395916497,1.0864574043620665,0.15409117937088013,0.7049307227134705,0.12873013317584991
19,22,0.4145959972469697,4.2527282402075555,4.607592770738908,0.003580089192837477,0.03612281009554863,0.960170328617096
20,23,0.3826227713597284,7.349454364304839,11.269994118991079,0.1762499213218689,0.4772309958934784,0.21549013257026672
21,24,0.4237216321107552,9.632456740494804,12.249641113662767,0.004436535760760307,0.8342693448066711,0.14195100963115692
22,25,0.7373617816930725,5.018673073053066,4.7824862298929345,0.008321056142449379,0.5041864514350891,0.3542425036430359
23,26,0.13718568643801685,4.20847547631598,6.195731584442567,0.021897401660680767,0.3866242468357086,0.4735812544822693
24,27,0.3948127281092226,8.566559321215937,14.13666109317538,0.00013931312423665076,0.026684295386075974,0.9730745553970336
25,28,0.6184313872694117,7.028105131643506,9.404977572092086,0.008194238878786564,0.04622643813490868,0.05529141053557396
26,29,0.29006714147926965,1.3766680287202937,0.32047458210083235,0.009457667358219624,0.3543999791145325,0.5296810865402222
27,30,5.703575275047345,14.811924183394602,88.17151019821303,0.0009612901485525073,0.4637486636638642,0.5295884609222412
28,31,2.5349259705763254,337.19897303742147,844.0033929628509,0.7665131688117981,0.16217254102230072,0.06394430249929428
29,32,0.35551028539344914,1.9381464777271096,0.800904639732052,6.719641509889127e-10,3.1279698305297636e-05,0.9999610185623168
30,34,1.44488263528037,3.167785926565947,3.0120564210127014,6.429746281355621e-05,0.7091484665870667,0.290258526802063
31,35,29.873235819832438,108.99750529791494,2013.380164631273,0.30594614148139954,0.5026682615280151,0.1887463480234146
32,36,0.0747188207880187,5.4433346371175055,7.185320848755535,0.971719205379486,0.006699070800095797,0.005382374860346317
33,37,0.5658689950560671,6.252421145563433,6.406289941474316,0.00884790625423193,0.0318121463060379,0.9580458402633668
34,38,0.3292072205966968,3.1074330744807086,1.84465129715579,0.007490140385925771,0.19546975195407867,0.7553319334983826
35,39,0.8005042957926563,6.531044868712473,9.775907886318825,0.3214733302593231,0.3860061764717102,0.11548756808042525
36,40,4.635968122203377,141.7309414986824,8561.176293589839,0.004023686051368713,0.6139644384384155,0.35328423976898193
37,41,0.6563866604481472,8.31026351335219,12.353211577319465,0.03330298140645027,0.6931732296943665,0.2206760197877884
38,42,0.531643458792759,4.658229872442803,4.733359012805657,0.012704500928521156,0.10658037662506104,0.8806842565536499
39,43,0.5008740273776663,4.874958879522283,6.313917732465326,0.02413058839738369,0.6028234958648682,0.3686900436878204
40,44,0.7128937047685524,4.4980254338260695,4.253332018706397,0.03714296594262123,0.07556425034999847,0.8872130513191223
41,45,0.8300390725544332,7.882877990756109,10.502924346659814,0.0003308510931674391,0.9165093302726746,0.06559388339519501
42,46,0.5855312119719891,0.8837740739625155,0.439263824968246,0.012698429636657238,0.5062733292579651,0.4738379418849945
43,47,2.6464481479861184,18.922958016804824,7.682647344548812,0.000302653614198789,0.7465784549713135,0.2528102397918701
44,48,0.4590051370727951,8.004682256662882,11.734038960120163,0.004000679589807986,0.016195539385080338,0.979802668094635
45,49,0.3083560661263237,4.819928772865507,6.0319421724104885,0.0911438837647438,0.2302539050579071,0.6617640852928162
46,50,0.1108669027895053,1.9441112185209608,0.8714687254185146,2.478713900799789e-09,1.2408786460582633e-05,0.9999876022338868
47,51,0.7494071311833415,9.770650613040246,22.36229644323551,0.035178959369659424,0.4565452933311462,0.4547840654850006
48,52,0.5170936924538815,6.3340036264418496,11.833546301141867,0.002216390334069729,0.4110298156738281,0.07800541073083878
49,53,0.10878608450667114,2.441095168379692,1.4651012890700612,0.6870612502098083,0.06891610473394394,0.2425839900970459
50,54,0.13103129674386074,2.8681343050923016,2.610422406635491,0.0016166084678843615,0.037465259432792664,0.9609118700027466
51,55,0.38973161682562,4.526099783289613,3.882623940073034,0.007726535201072694,0.0565052293241024,0.9343613982200624
52,57,0.7734223234518249,5.127619104060262,5.385602788635322,0.027933089062571533,0.565149188041687,0.21678927540779114
53,58,0.4852859695658016,6.955120163262763,8.26979608809506,0.10415148735046388,0.3021477162837982,0.5659443140029907
54,59,0.5360856080852091,7.0604673052788725,9.64255547223433,0.4480669796466827,0.35747087001800537,0.1366024911403656
55,61,0.3227172105512639,6.3470291268553085,9.862167827542033,0.0011322976788505912,0.05051470920443535,0.9483077526092528
56,62,0.407062349652026,5.125778290505416,2.7281597364075627,0.0027332857716828585,0.5312623977661133,0.4510616958141327
57,63,0.07533948594546587,3.101094258846368,2.1142927591891643,0.002522435039281845,0.6550012826919556,0.3342401683330536
58,64,0.2100360578136752,8.594369360267944,13.551322591474431,0.12395092844963075,0.4020761549472809,0.222146138548851
59,65,0.7308204581975164,11.997378474746974,28.814504220290875,0.03595313802361488,0.4029590487480164,0.4568540453910828
60,66,0.4182038487060751,4.449554137327301,5.862002620179808,0.0014231116510927675,0.7223192453384399,0.21175749599933624
61,67,0.3888866798301372,2.9472739450795875,2.3282587629857763,0.373620867729187,0.24865274131298065,0.3110553622245789
62,68,0.4437320903568148,6.176975750880668,8.854822963081363,0.06401252746582031,0.3768308460712433,0.17682963609695435
63,69,0.4062348787909392,8.83849261389193,16.928188409889792,0.017545970156788826,0.2298483997583389,0.7519772052764893
64,70,0.44454472521818295,3.36481548285162,2.640888147106552,0.00857988279312849,0.3457651734352112,0.6137121915817261
65,71,0.4914882515408772,9.16581025015792,16.989838828019366,0.02528132684528828,0.6051156520843506,0.3177198171615601
66,72,1.2273880841153515,3.3560941660029067,3.157193723566368,0.0004795237036887557,0.7838106155395508,0.20809002220630649
67,73,0.5111845875422102,7.386638653733907,8.184620084684852,0.3013074100017548,0.3863012790679932,0.31106337904930115
68,74,0.3320781389413181,3.628290020399014,3.74262784549038,0.0023420252837240696,0.8265630006790161,0.0879925787448883
69,75,0.6810804069402703,3.0824421399188298,1.3793474644448924,0.2251244336366653,0.4020975828170776,0.32150354981422424
70,76,0.608250037816682,6.516647189037763,7.645704370573847,0.0039375917986035356,0.010318837128579615,0.9857075810432434
71,77,0.5895606155205523,2.0595031761482674,1.1782361957443273,0.0017774978186935184,0.554887056350708,0.4428525865077973
72,78,0.7170732006441778,2.2172558864470133,1.5573852048549337,0.01042999792844057,0.7527348399162292,0.2199848294258117
73,79,0.5089063865895489,7.768205391447487,11.382239565470787,0.009375396184623241,0.09118589013814926,0.8979778289794922
74,81,0.5145655833163038,1.5784232737317887,0.7029671200875695,0.00013721876894123852,0.051440928131341934,0.9483029246330258
75,82,0.16169730233329546,4.1857539309370235,2.9915765943287447,0.0002460611285641789,0.9764478802680968,0.02069959044456482
76,83,0.9221968054173416,6.15390914441192,6.980572130715518,0.00030778307700529695,0.03840973973274231,0.9609668254852296
77,85,0.5338568947482331,4.07183410698007,2.7988647925974752,0.0005483418353833258,0.3363368809223175,0.6614842414855957
78,86,0.5104233290097666,4.970218043490326,3.2719005020037764,0.5095533728599548,0.021993672475218773,0.02859605848789215
79,87,2.6257456583721264,92.58684648061407,5852.857404871502,0.09843645244836807,0.3256697058677673,0.570586085319519
80,88,0.3270035949106593,7.4734538471531025,10.22331798179501,0.4748468697071075,0.2662921845912933,0.12441127747297287
81,89,0.6909227435873979,12.125744067787045,28.254439553431787,1.9700000848388304e-06,0.0009331781766377386,0.9990648627281188
82,90,0.6437633824128579,6.2119189948525895,8.522916394802193,0.36647680401802063,0.3750152587890625,0.11097490042448044
83,91,0.4847103413868922,8.680136803526784,17.56756202691694,0.00022200813691597432,0.9020355939865112,0.0745355561375618
84,92,0.28317656505270544,1.993406099244544,0.7300041175986726,9.356956434203312e-05,0.9177465438842772,0.07688917964696884
85,93,0.4120462422026396,0.7046144813952951,0.18606774623375227,1.1665699275908992e-05,0.038464002311229706,0.9615185260772704
86,94,0.4031318509015808,3.150302215502224,1.98425475822056,0.09867452085018158,0.4116858243942261,0.43835991621017456
87,95,0.4218709366490015,6.331163639486388,7.687239391772588,0.00010649129399098456,0.07533629983663559,0.924504280090332
88,97,0.4179409333303508,1.4328256528874572,0.531586478601232,0.0005495921359397472,0.19172528386116028,0.8073949217796326
89,98,0.4650220335674925,2.367343959934619,1.6390124325522148,0.0006205508252605796,0.4589564502239227,0.5361751317977905
90,99,1.1137340284133672,3.1600101871771296,2.958487566436012,0.024131225422024727,0.3528136610984802,0.15486106276512146
91,100,0.6186068504637873,8.784369107809686,18.74491082501441,0.13113757967948916,0.6722696423530579,0.150767982006073
