,event id,width,length,azwidth,p_spot,p_track,p_worm
0,1,0.3741727252784416,17.610879474948913,204.2747607808644,6.877717532915995e-05,0.9434261918067932,0.05557780712842941
1,2,0.6348293502651652,19.103031761224013,172.97269869635258,0.000790212070569396,0.5445131659507751,0.4534341394901276
2,3,0.696391806410224,10.859087158970294,6.059597119453263,0.011671500280499458,0.08681649714708327,0.9013289213180542
3,4,0.4322216032093632,13.974796520367056,77.61626949861412,0.002631841693073511,0.9456306099891664,0.04604525491595268
4,5,0.5787311652263437,20.319263581852557,66.61866739994143,0.635053277015686,0.055269166827201836,0.3022996187210083
5,6,0.3778335317493481,9.02011067661295,13.20173927476724,0.00790291279554367,0.5071046948432922,0.4810249507427216
6,7,0.417402589671571,14.446045370826823,18.213916158237065,0.00022901750344317406,0.9013996124267578,0.07503980398178099
7,8,0.4076563223737208,10.735159792224598,47.02989997249325,0.001989561365917325,0.6208294034004211,0.33397772908210754
8,9,0.35905502965914715,7.812684194951926,5.8815954875913015,9.652234439272434e-05,0.9621199965476992,0.03600410372018814
9,10,0.27757799314995785,6.146523600360691,21.551729804824447,0.00013828821829520166,0.9358237385749816,0.01639812812209129
10,11,0.6702231160473986,24.98327993676877,283.2748552994837,0.22837793827056885,0.02582523413002491,0.7457050085067749
11,12,1.7069422356301298,9.869791675289967,19.734162303146146,0.0008443120168522,0.010691539384424686,0.9884413480758668
12,13,0.6115990814142869,4.710248355050812,8.959054849340514,0.0005634689005091786,0.4644031822681427,0.5293207764625549
13,14,1.8274995484952825,9.494801067222154,39.86051931421896,0.0002999868302140385,0.01121720764786005,0.9884661436080932
14,15,0.3328663031214615,8.641962725646964,9.90141367789398,0.15596634149551392,0.6870033144950867,0.1562819927930832
15,16,0.4986976531230564,11.017374010537862,21.175453385603927,0.00029013672610744834,0.922343373298645,0.05797272920608521
16,18,0.4837758940133816,18.617998050277226,3.6451294200139936,0.001706562703475356,0.9489538669586182,0.04899784177541733
17,19,0.6046874843837429,9.939252210776091,49.122188325042494,0.000893276825081557,0.918761134147644,0.0724153146147728
18,20,0.4841268870910209,16.986178005111338,34.86828321196294,0.6334946751594543,0.2564211487770081,0.10931777954101562
19,22,2.7463072331248126,14.07566369401197,20.76828259236052,0.0008663602056913077,0.013034321367740631,0.986095368862152
20,23,0.3561176821274764,8.166943424531254,25.92115411787031,0.00010467338870512322,0.9599034786224364,0.03945915028452873
21,25,0.4990240624695251,13.173900601815314,8.261661954037802,0.00011227249342482537,0.7624267339706421,0.23112213611602786
22,26,0.06828815043829138,4.1641319667457335,8.827724974088069,0.163581520318985,0.14530833065509796,0.690682053565979
23,27,0.5404446883297717,14.09872583520226,11.031648496962696,0.0035447913687676187,0.4831537902355194,0.4997691512107849
24,28,0.5153242961404795,12.967783633105626,48.737745966903674,7.616778748342767e-05,0.9152992963790894,0.08404804766178131
25,29,2.833865894856769,279.1577880991536,56306.789578073214,0.01441393792629242,0.8402093648910522,0.14265866577625275
26,30,0.454887061463188,10.876574533753383,0.6294923792956526,3.5736535210162394e-05,0.966619908809662,0.02347497828304768
27,31,0.43816633797673216,11.992898116592634,3.8811828279157377,3.6415905924513936e-05,0.28916865587234497,0.7107512950897217
28,33,2.6361723662620564,3.0483496560770327,7.229245777717018,3.823762381216511e-05,0.0046997531317174435,0.994404673576355
29,34,0.7253600216655895,11.308189883935714,27.034169647994727,0.3097871243953705,0.07127312570810318,0.6186289787292479
30,35,0.23269788144279965,14.813787090002801,93.64369344965144,0.9795354008674622,0.011084964498877524,0.008541414514183998
31,36,0.5585882728139319,4.0405004771271225,6.128792264123041,0.0008587576448917389,0.05241266638040543,0.9466780424118042
32,37,0.536900572315723,19.832976634846133,162.0583418938177,0.002403961028903723,0.27758148312568665,0.7179955840110779
33,38,0.3695991889545051,21.502026085348202,52.22429489991799,0.00034515795414336026,0.9619012475013732,0.02543008327484131
34,39,0.2841406293826682,4.322173727609317,1.1691278118524284,0.0013667232124134898,0.9408140182495116,0.05540756508708
35,41,0.4313828930085774,20.009968925213443,171.39631357662017,0.01767514459788799,0.777705729007721,0.2032000869512558
36,42,0.7057436644502091,24.32929610249505,322.1470535435909,0.5939086675643921,0.029061352834105488,0.3768530488014221
37,43,0.4400155416807023,18.913008911969523,193.73193770490798,0.0001866655657067895,0.9310099482536316,0.06613100320100784
38,44,0.380989580904171,11.916994054786498,2.413123690783065,0.000315674813464284,0.8852019906044006,0.036662042140960686
39,45,2.2447768220641744,10.449306440345774,22.077289102065148,0.000588190567214042,0.0899045467376709,0.9093881249427797
40,46,0.24170808910778305,12.690113963311784,82.45794096597723,9.299416706198825e-05,0.9764507412910458,0.020856739953160286
41,47,0.36120873504317796,19.89376425413923,2.0840144930474227,0.06029905378818513,0.8533649444580078,0.08337567746639253
42,48,0.4276248932571856,14.606251842806525,3.9740387074951897,0.003639325965195895,0.6414092779159546,0.353729784488678
43,50,0.4029317081734081,14.132923076205639,96.85418441240871,3.7197121855570003e-05,0.9189736843109132,0.08085443824529648
44,51,0.5050118585619603,11.990262084426297,36.45160377699237,8.282107046397869e-06,0.9707956314086914,0.028823310509324074
45,52,0.25260161724625274,22.85304185467348,63.92543244161437,0.02805153466761112,0.7764031887054443,0.13862690329551694
46,53,0.5070142187491876,7.185908740934187,8.802471067440912,6.920992746017873e-05,0.9412900805473328,0.05763586610555649
47,54,5.337847403757018,7.5563647752781335,40.12172679710597,5.260528268991037e-06,0.016552120447158813,0.9834182858467102
48,55,0.29542456577361154,13.308250099901215,104.80651146169544,0.003848262364044785,0.8567061424255371,0.04923876002430917
49,56,0.6106419978154181,16.01427128869969,74.19171438641592,2.1629199181916192e-05,0.8712496161460876,0.12805022299289706
50,58,0.4668337423132847,9.612634465801596,35.92114762194523,0.037109926342964165,0.7336926460266113,0.2281264364719391
51,59,0.35510903119498904,12.273963343475016,60.36333368540664,0.004308359231799841,0.6309130191802979,0.10350973904132844
52,60,0.3629937267073669,16.64471172966347,158.29717775753358,0.0009612494031898676,0.7805781960487366,0.21396011114120486
53,61,0.3123601236970782,23.783494602416354,17.969694062776934,0.8758893609046936,0.005672537721693516,0.010069720447063446
54,62,0.3572399687500797,17.86206409238766,29.935050069917025,0.016669778153300285,0.8357691764831543,0.13559463620185852
55,63,0.5312112093989515,10.841097867891577,17.639379164727547,9.958173177437857e-05,0.9095566272735596,0.08890113979578018
56,64,1.3911699829192468,6.71266780543972,4.96177555129472,0.006541286129504442,0.005522601306438446,0.9879200458526612
57,65,0.36341135477032377,7.15065383642035,1.7048071970276006,0.01569516584277153,0.8810388445854187,0.07428272813558577
58,67,0.35103173655675884,5.467760376333032,2.810841707462288,0.005135803949087858,0.9514268636703492,0.04130696505308151
59,68,0.4543006328650805,13.536258428265064,22.36036271889801,0.1013663187623024,0.4880820214748383,0.3604919016361237
60,69,0.4159091198137076,9.652259361575904,0.6919670277320064,0.001716290251351893,0.7866519093513489,0.1303170770406723
61,70,0.4410543750363448,7.894146425914664,11.839581134413269,0.0011642497265711427,0.8614003658294678,0.11890079081058502
62,73,0.2992178689350811,6.067314298821974,16.187797818500467,-1.0,-1.0,-1.0
63,74,1.2179581375128752,4.505141152764392,14.86538793031616,0.00032858384656719863,0.9564402103424072,0.04183012619614601
64,75,0.5797492485543039,14.731092927718947,62.22372604546088,0.011308575049042702,0.043901726603508,0.944557785987854
65,76,0.7505437429812833,18.470296114554746,0.7262773756427754,0.0015992714324966073,0.792276918888092,0.2000645846128464
66,77,0.3807713419476184,21.01740489590617,222.27827938220784,0.04953366145491599,0.2140427678823471,0.7359682321548462
67,78,0.2844360005056534,8.254053002176992,2.8311118208377155,0.03142545372247696,0.7849302291870117,0.17121468484401706
68,79,0.5274465641568529,13.012664615182144,45.8627952041827,0.0016975088510662315,0.7964069843292236,0.07199498265981674
69,80,1.191003704130806,14.465094417740412,48.32873741850399,0.0030324640683829784,0.2804281115531921,0.03022948838770389
70,81,0.9973600266794752,15.202166803151787,40.955373098026115,0.04275825247168541,0.0032459083013236523,0.9539823532104492
71,82,0.6614631259663744,15.641569620117185,6.021129671769216,0.7594607472419739,0.004077077843248844,0.2364434748888016
72,83,0.3853470929551277,14.928269304534107,46.73144855720312,8.937354323279578e-06,0.8763417601585388,0.12336894124746325
73,84,0.4635592067159802,9.84987382386043,38.95537088868059,0.005208051297813654,0.8780051469802856,0.08655691891908646
74,85,0.5376950936778836,15.522819669357036,59.8576413124127,0.004406763240695,0.7008375525474548,0.2927221953868866
75,86,0.7165882753446807,20.62044320956469,12.426191210399963,0.0292871817946434,0.1922633796930313,0.7748149633407593
76,87,0.655289255518027,10.00427683291058,53.669767442672594,0.03061537258327008,0.09941621869802476,0.869028627872467
77,88,0.5387274866342776,28.440705228522983,211.25620391733608,0.0059922542423009855,0.4346738457679749,0.5577583909034729
78,89,0.6372762751863421,25.027416480646163,272.43888302567314,0.5011759400367737,0.2236393243074417,0.2711251974105835
79,90,0.6179583177831657,9.460112185797843,36.59463500952589,0.27925512194633484,0.5640096664428711,0.14770205318927765
80,91,0.7215322511034289,12.385578086113696,63.197665799260854,0.0015355470823124053,0.7696070671081543,0.22284184396266926
81,92,0.43311838037806016,12.104343716920914,59.21079424093085,0.0039052795618772507,0.3099609315395355,0.6851450204849243
82,94,0.3382348135979808,7.404275500357808,2.065467005493575,1.2360897926555479e-05,0.957982897758484,0.040549851953983314
83,95,0.4168951839339372,12.986603037094481,28.28416542954467,0.041234325617551804,0.8991313576698303,0.046028759330511086
84,96,0.5389161551498907,14.108906874834068,12.442700622371188,0.002879335545003414,0.8875027894973755,0.10802177339792253
85,97,0.4275843343977814,10.94052836579425,0.9583489714187912,0.2347320318222046,0.4583515524864197,0.3048557043075561
86,98,0.5074545950894465,11.424806378962511,34.529169824048324,0.0031535658054053783,0.7597905397415161,0.1832144856452942
87,99,0.3792953865970746,20.796060617273824,0.15533665966546725,0.03450719267129898,0.8111735582351685,0.15291933715343475
88,100,0.3648295365897469,13.639071180806296,11.117617971095862,0.012119120918214321,0.9291064739227296,0.057435639202594764
