,event id,width,length,azwidth,p_spot,p_track,p_worm
0,1,0.3547496113141237,4.589535767190575,8.456980597503469,0.01858197897672653,0.8297187685966492,0.14025063812732694
1,2,0.3438453209541487,5.484387730930556,10.646665053285233,0.0346805602312088,0.4788813292980194,0.4861588180065155
2,3,0.4868482714257508,9.23175594947933,29.03511939818233,0.02596228942275048,0.7379550933837891,0.20752176642417908
3,4,0.7487024459648522,5.6515152607191945,16.827525559538177,0.0004768298822455108,0.018605893477797508,0.9809041619300842
4,5,0.3270419670626227,8.15538042575518,21.744811037089878,0.06027279794216156,0.06580287963151933,0.36596930027008057
5,7,0.4499974582338814,5.536672168816095,9.932272786392724,0.011286724358797072,0.006030983291566372,0.0256633423268795
6,8,0.4081328994994666,7.680531969547148,26.26129269865044,0.006294827442616224,0.6120288372039795,0.06466301530599594
7,11,0.4601818402881239,3.5124910370483566,5.490383810557545,0.07964504510164261,0.6387458443641663,0.2476019114255905
8,12,0.5445711043565096,8.873703997543208,32.27011409384053,0.0009296104544773696,0.9636391401290894,0.034627702087163925
9,13,0.3467827728118665,9.996055585565175,35.5445563263755,0.06660318374633789,0.7572617530822754,0.15846991539001465
10,14,0.4143566078945216,10.119219892785967,42.66108148822358,0.002531203674152493,0.7805554866790771,0.21467261016368866
11,15,0.3648524623293215,9.539759076597383,31.526992898674077,0.004793725442141295,0.7917168140411377,0.20237579941749573
12,16,0.015581503424133888,15.550659985006945,115.92873333147287,0.011897534132003784,0.8159388899803162,0.17143018543720245
13,17,0.5373300567155495,8.050830373722485,23.74991106775661,0.0882420688867569,0.662148118019104,0.20570118725299835
14,18,0.7560846694022084,12.672580348863866,35.51611739565485,0.07472944259643555,0.7184135317802429,0.19108979403972626
15,19,0.4911381743787326,6.673369117709713,17.988048359146163,0.8865371942520142,0.03306140750646591,0.018193528056144714
16,20,12.742632370232252,25.631850811050345,635.2017717547741,0.0009491235832683742,0.7966716289520264,0.185833141207695
17,21,0.2504175306147353,6.709917583700495,7.287298249727683,0.04105043038725853,0.014124927110970019,0.944818377494812
18,22,3.3714569005967965,4.381653342134545,18.95181938726644,0.002715352922677993,0.827747106552124,0.1677308827638626
19,23,0.7649853325171325,13.88611154552218,64.63522732451212,3.2725616620155045e-05,0.02995811589062214,0.9699952602386476
20,24,0.5268322320320258,9.11956598943572,23.865612917978268,0.33188509941101074,0.2296079397201538,0.43738314509391785
21,25,0.5253626651797968,3.814863943023041,6.444107779429578,3.057617732338258e-06,0.0007648405153304337,0.99904066324234
22,26,0.5453259903901317,7.625441910402032,14.661216183049298,0.3604933619499207,0.015106809325516226,0.6240985989570618
23,27,0.5530775875122536,3.314294531457429,2.676316171847728,0.6649893522262573,0.2359266728162765,0.08470408618450165
24,28,0.3137680065139594,5.458257594876145,3.6538580431726633,0.00030729419086128484,0.82639080286026,0.1617482751607895
25,31,0.47359943495143103,5.940230454236237,21.748971701136245,0.00047941762022674084,0.1397569179534912,0.8558505177497864
26,32,0.4802060812317638,6.426328528245013,15.567683072789016,0.0036148331128060813,0.6202531456947327,0.2666839957237244
27,34,0.406848198569979,3.9081474761735575,6.1755175097311605,0.00964331068098545,0.8520306348800659,0.13715900480747226
28,35,0.7657632236838985,11.25814578703883,38.858925428724106,0.9811418652534484,0.000609532231464982,0.0008590251090936363
29,36,0.291852079887896,14.976286528225904,89.93741923553492,0.027213580906391144,0.8167979717254639,0.12274985015392305
30,37,0.4259764488853257,4.84628542478555,9.958029369505617,0.05099789798259735,0.21119068562984467,0.7311480045318604
31,38,0.3839982344581843,6.031541735021622,15.385763804725347,4.184126373729669e-05,0.9767338037490844,0.021611874923110008
32,39,0.6401416672952489,4.638109076205541,6.0287255640575905,0.07331927865743637,0.229397714138031,0.6238953471183777
33,40,0.5862377668137401,13.808028581696567,79.31445121386993,0.003094003070145845,0.6879265308380127,0.15553249418735504
34,42,0.2909834165127446,2.0002199834353958,1.8456949828280669,0.2565978169441223,0.028358358889818188,0.7148885130882263
35,43,0.4479770204736152,2.867042708031913,2.5332225662260406,0.4032529294490814,0.3702464699745178,0.07605454325675964
36,44,0.6056147811129138,10.848289018522859,27.136397663298894,0.0005082337884232402,0.9007027149200441,0.0791449099779129
37,45,0.15935732743707054,9.500514626971619,39.00265978819986,0.19730935990810394,0.3314032256603241,0.07594794780015945
38,46,0.4742551364191708,12.413853911515448,44.89585713385237,0.00036134987021796405,0.8236482739448547,0.17563842236995694
39,47,0.4309567343036089,10.54740569608516,45.80307861729603,0.056496132165193565,0.6860358715057373,0.2561244666576385
40,48,0.5776813567286365,7.8999984593257135,12.199742759914178,0.32659581303596497,0.2516399621963501,0.1242445632815361
41,50,0.3899118826849205,4.967912212703372,9.522843772969788,0.0020576906390488148,0.8811467885971069,0.04775341972708702
42,53,0.5247958027488817,0.747310530696185,0.363374437618039,0.07260926067829132,0.7595787644386292,0.16620822250843048
43,54,0.6431078374532118,13.98386561512151,77.28242238613906,0.11737972497940065,0.1281057596206665,0.753218412399292
44,55,0.44696273175532025,10.223469745365716,63.85268907041882,0.09903626888990402,0.2189003378152848,0.6789832711219788
45,56,0.2644403731821441,7.310438310780192,28.20254510850743,0.3869666159152985,0.12289642542600633,0.2551005482673645
46,57,0.4877660341247914,8.56347536181425,31.823082346304933,0.005373036954551935,0.7847744822502136,0.1851702630519867
47,58,0.5308487193432576,6.7489120470937625,10.73638571681218,0.0024227157700806856,0.45548015832901,0.5334635972976685
48,59,0.5436438821841236,13.432347602751507,63.38308205350352,0.2767640650272369,0.3218773901462555,0.2814793288707733
49,60,0.2748688378490102,8.261111505671776,22.67585477316556,0.00011378182534826921,0.8741528987884521,0.12444958090782166
50,61,0.5938805486723823,9.96150289254304,28.790577813840322,0.06880243867635727,0.01623770035803318,0.08220528811216354
51,62,0.3697884831798964,5.7253158215803435,14.526536108277414,0.9596217274665833,0.0063139363192021855,0.03381019458174705
52,63,0.3292514652016567,8.145258270697468,31.395439141149676,0.005960185080766678,0.04305332526564598,0.9508390426635742
53,64,0.4541552799981333,6.437993632395294,17.612247507413638,0.17378313839435575,0.4644353091716766,0.3539405763149261
54,65,0.9152647004214972,1.2326488173428212,1.2214671869166431,0.0001401381887262687,0.9184617400169371,0.07960890233516693
55,66,0.6018861244616902,14.351427752391205,82.5582394973937,0.0006911389646120369,0.9315595626831056,0.0380680039525032
56,67,0.3668953556056338,8.63998325714885,28.3382401087466,0.0038238312117755404,0.8562730550765991,0.13910549879074094
57,68,0.5760826197984427,11.206207311580453,41.00693107288858,0.11660058796405792,0.7634428143501282,0.1153753027319908
58,69,0.3342294866693249,4.880879741765086,9.856252548666744,0.0010148363653570414,0.802956759929657,0.07129776477813721
59,70,0.5464407408774254,12.058661082174838,52.426289000447284,0.018631495535373688,0.2583278715610504,0.7206957340240479
60,71,0.5354126377942976,6.4173818166123535,11.241006360372813,0.00527603505179286,0.6530292630195618,0.30649393796920776
61,72,0.08983922467784806,5.612828301491066,12.352452292505234,0.005892736371606588,0.4334155321121216,0.5051720142364502
62,73,0.26317028710283263,10.187462223914787,30.60325885920139,0.002791339065879584,0.6687070727348328,0.1820843815803528
63,74,0.2494694788735603,8.02863893988553,22.952472200049247,0.9642154574394226,0.0008710893453098834,0.03491104394197464
64,75,0.3000186335750864,6.096411149314088,16.47318761404249,0.021355798467993736,0.6685467958450317,0.3007429540157318
65,76,0.5998700322358175,8.035785742320956,16.711847674271322,0.0006674263859167695,0.4020601809024811,0.540877640247345
66,77,0.4665708725973424,7.8720549081381535,23.610764240261197,0.01244877465069294,0.5370220541954039,0.4094391465187073
67,78,0.6210865525779211,5.1589330478094055,10.388707114845005,0.0015050669899210336,0.7557138204574585,0.21438105404376984
68,79,0.945378987918956,10.32277043935051,51.80444790723979,0.02057925797998905,0.4363511800765991,0.5411712527275085
69,80,0.5452326803586883,7.607416425541049,23.521070453627647,0.00015329393499996508,0.640089213848114,0.3510543406009674
70,82,0.5355717094980282,7.772652550068746,19.18113501665311,0.1686926931142807,0.6713161468505859,0.11204930394887924
71,83,0.4757701903860849,1.795647574379131,1.7112109343132949,0.013601731508970259,0.8913830518722534,0.06905736029148102
72,84,0.6595651967272474,10.11412996278812,26.59863554598291,0.0063084233552217475,0.7067845463752747,0.07704617083072662
73,85,0.5706852060510469,13.330856354690376,61.9690444019553,0.008640780113637447,0.3281511664390564,0.2539701759815216
74,86,0.14836341556185334,10.131741924224912,33.09654021013061,0.0006215692847035825,0.4533505141735077,0.5452680587768555
75,87,0.37824622029553295,8.351968216569666,16.730962437215325,0.008699776604771614,0.4683042168617249,0.4687608778476715
76,88,0.4832559452383284,7.9827733709180775,21.045387402869906,0.0003505622735247016,0.0867631658911705,0.909684956073761
77,89,0.4920691248456637,8.00206506321239,28.89179029925833,0.004098893608897924,0.12429439276456833,0.8708284497261047
78,90,0.3740100677490867,3.554530134492546,1.2968582997195457,0.00034116950700990856,0.226728230714798,0.7716493010520935
79,91,0.4269404854022942,5.858117106327999,15.03574423795137,0.3275302052497864,0.5368601083755493,0.0926031768321991
80,92,0.8277309389238047,9.944844936493158,32.07668807150179,0.0077524958178400985,0.5121456384658813,0.4707444906234741
81,93,0.38951150803053575,3.2464693381971514,4.692495459886227,0.1087166890501976,0.4163704216480255,0.4718596637248993
82,94,0.5171115346704908,10.654947338999447,40.27559609244329,0.4149940013885498,0.045342843979597085,0.5392134785652161
83,95,0.3931450922443559,12.367202440771164,62.86850163615029,0.0006455300026573241,0.5014787316322327,0.495968371629715
84,96,0.27056121947577205,10.846444175286779,46.190220999315606,0.4713933169841766,0.06686330586671829,0.11778640002012253
85,99,0.3287809009192155,7.2564038739993215,16.374412326520332,0.0002770923019852489,0.9190417528152466,0.0803564116358757
86,100,0.23065380230576998,4.635269974078397,5.8236457156332095,0.0010193987982347608,0.314341276884079,0.6440873146057129
