,event id,width,length,azwidth,p_spot,p_track,p_worm
0,2,0.4428096421057547,20.003262119796265,12.235288708896412,1.1956990420003425e-05,0.9962635636329652,0.0037241389509290452
1,3,0.5625442189124643,12.22254873119235,0.5246107963041908,7.607127190567553e-05,0.9637556076049804,0.03615183010697365
2,6,0.5734595050339101,27.58208613360893,32.173483686211114,1.3191456673666835e-06,0.9993119239807128,0.0006865258910693227
3,8,0.4624304886805246,16.544796898154946,43.59656393177269,4.6293942546071776e-07,0.9829961657524108,0.017002662643790245
4,9,6.9022671008716605,43.59030774331353,139.91750278966552,0.019237900152802467,0.021438784897327427,0.95931214094162
5,10,0.3970935286614369,16.627171299425587,1.5605329044347758,1.08628228190355e-05,0.9801477193832396,0.019799062982201576
6,11,0.3314868096189278,20.36914162114376,47.53491213134369,5.708128014703107e-07,0.9989743232727052,0.001023094868287444
7,13,1.3297960691542932,61.72406847135448,395.75364266418234,0.005876148119568825,0.14070847630500793,0.8534145951271057
8,14,0.5454680686451641,15.700765150687426,34.04809273260527,3.862276571453549e-05,0.9783276915550232,0.021631564944982532
9,15,0.43034941712127217,22.03537707149624,209.530385805876,5.450598550282848e-08,0.9995606541633606,0.00043797626858577127
10,18,1.4810512177071462,3.5626632576290533,6.787642077937324,0.0020938646048307427,0.06294839829206468,0.9349502921104432
11,19,0.4164448367603787,7.027348839525253,13.319845987556482,2.833236578680953e-07,0.999409317970276,0.0005891795735806228
12,20,0.488653061626783,24.5280892250283,167.69918641414586,1.8896389519795773e-07,0.9982672929763794,0.0015703621320426464
13,22,0.4710424267138352,16.039276979558956,55.176358334722536,5.5273360999308345e-08,0.9987751841545104,0.0012244264362379909
14,23,0.5671818166984467,19.29283687908979,76.5769048669962,2.9789472932861827e-07,0.9982732534408568,0.0017263811314478517
15,24,0.5201432930639748,24.445321409906448,65.3123745915155,0.00035200780257582664,0.8998806476593018,0.09976416826248168
16,25,0.5731046176830871,19.793965727440693,66.54837905930712,2.0704563212348148e-05,0.9897322058677672,0.010245832614600658
17,26,0.4828599780295609,23.506784481907548,98.85778730814516,5.466731511916123e-09,0.999777615070343,0.0002218803565483541
18,27,0.4643014741270869,24.051984184761015,23.66033213285232,5.056560681282463e-08,0.998988926410675,0.0010101656662300233
19,28,0.3449883063067189,24.20267478558268,309.5369322379605,1.1427201570768375e-05,0.9944040775299072,0.005572092719376086
20,29,0.4021780681822426,27.449728644503,88.20231396297231,9.92103468888672e-06,0.9942674040794371,0.0057193576358258716
21,30,0.5497023767552857,13.24703327762624,58.43004491089484,1.3893509276385886e-05,0.9955978989601136,0.004387796856462956
22,31,0.2907833081688357,15.732896654388226,100.56780189693949,1.3395866744758678e-06,0.9982744455337524,0.0017208560602739453
23,32,0.5782923092490372,34.55738219216488,45.53940644571811,0.2498917281627655,0.4652906060218811,0.2834726572036743
24,33,0.5136411438494537,17.339317464727845,48.50349957485194,8.803831406112296e-06,0.9947922825813292,0.005198255181312561
25,35,0.6296821950489405,16.231740291688865,33.03091850724115,3.625738287382774e-08,0.9997186064720154,0.0002811595913954079
26,36,0.22277867476893587,29.72931188991389,98.78954825007877,6.58741919323802e-05,0.9889860153198242,0.00802562851458788
27,37,0.5003032587236654,18.62783581939228,14.275180168719062,2.8993058620585543e-08,0.9986118078231812,0.001387264346703887
28,38,0.44339268433429546,21.224583937003306,213.94094281787446,0.0001844250946305692,0.982654631137848,0.017078069970011708
29,39,0.58027997606187,19.233475046980022,4.456121488864231,1.748416070768144e-05,0.9947777986526488,0.005204590503126383
30,42,0.18827930914232088,8.300961575249412,15.63668559683378,-1.0,-1.0,-1.0
31,43,0.6174683952715749,33.597530494043546,245.8724073044133,0.007226667366921902,0.9172863960266112,0.07543929666280746
32,44,0.5394045002633667,16.95771069075242,126.22490508584934,4.074695607414469e-05,0.9746761918067932,0.025274582207202908
33,45,0.7085123046251744,20.070689210971924,174.51884917194283,3.991158519056626e-05,0.9516687393188475,0.04829083755612373
34,47,0.4561316289057801,24.626342766453718,67.55479965368697,2.189871520386077e-05,0.99226576089859,0.007710131350904703
35,49,0.5154938134751048,15.014330158909278,45.838630286816226,0.00026956992223858844,0.9769734740257264,0.02269831858575344
36,51,0.4405098150090219,17.37352737530705,22.245924024544788,6.799762104492402e-07,0.9976511597633362,0.0023478027433156967
37,52,0.4920798865631239,23.004935703676672,5.333937474267941,8.750312554184347e-05,0.5791999697685242,0.4201041758060455
38,54,0.6384694513610306,18.83584988475943,143.2266762433739,4.289201751817018e-05,0.9672911167144777,0.032663725316524506
39,55,0.5785769391947302,25.58142927080261,83.03617470760824,2.689591747184749e-05,0.966658353805542,0.03331168368458748
40,57,0.4607964242482456,19.984117258557266,0.5497200181901639,1.885553501779213e-06,0.9967861175537108,0.0032086847350001326
41,58,0.7590497316694083,18.689291263547528,19.34756745095336,0.000261718436377123,0.7629759907722473,0.2367599457502365
42,62,0.4173986644217523,18.57787475011969,0.17648056921465305,3.575948142042762e-07,0.999271810054779,0.000727698381524533
43,63,0.6661997003809528,22.488109264585727,3.4735985876056947,0.013909777626395227,0.736012876033783,0.2500079572200775
44,64,0.4429630490620199,9.726567168370304,41.48772895963889,7.928794730105439e-06,0.9934165477752686,0.0065450603142380714
45,65,0.4655417712953547,30.103209653727017,21.876258644691358,0.0295386016368866,0.9195556640625,0.05063131451606751
46,66,0.375182862307164,26.05538059358352,218.36265979098286,0.002143478486686945,0.9736304283142092,0.02383366785943508
47,69,0.4873620219106822,25.967153822872053,0.5185451514292968,1.1079404430347496e-05,0.9930922985076904,0.006853950675576925
48,73,0.5805019171819283,26.279340299996253,47.52255255060092,4.185097350273281e-05,0.982087016105652,0.017835982143878937
49,74,0.3617918686864065,22.63084833105784,51.99300520546944,4.608014205587097e-05,0.9765666723251344,0.02338598296046257
50,75,0.6333883666441333,20.384585775320087,14.577205987034125,0.00012330578465480357,0.9751035571098328,0.02476642839610577
51,78,0.4590502350311931,25.904346224819733,1.5080147888850672,0.0008234111592173576,0.8190289735794067,0.17833463847637174
52,80,0.5030882427164327,29.913714400601613,244.6980890028868,8.032174264371857e-06,0.994353413581848,0.0056146313436329365
53,81,0.6214187720703099,23.322725437930004,41.62770664128335,0.000306165631627664,0.9574587345123292,0.042225781828165054
54,82,0.3142853711303156,15.7960462430426,141.06642214743076,2.591463612588996e-07,0.99937903881073,0.0006188279367052019
55,83,0.5168354201486445,11.231861107314145,1.70067421564605,5.966598450868332e-07,0.9965213537216188,0.0034691619221121073
56,85,0.4219138948382359,15.378248582937006,23.94466399312633,1.3114516150380947e-05,0.9706966280937196,0.029276829212903976
57,86,0.6186559630448257,34.846803396435746,432.4377799113597,0.0005199872539378703,0.9340216517448424,0.06545650959014893
58,87,0.4104935208762375,21.651152774132022,78.42106280803606,2.574710561020765e-05,0.9958305954933168,0.004076117649674416
59,88,0.4975014850805679,33.326525337634244,1.6161466279521273,1.0433550414745696e-05,0.992720365524292,0.007221704814583062
60,89,0.361144492521464,13.180730467898776,17.034135742795247,2.890429095714353e-05,0.9821693301200868,0.01741916500031948
61,90,0.7771277600826093,9.247029483813764,0.622510819057801,8.575309493608073e-07,0.9869152903556824,0.013083845376968384
62,91,0.4907138138814242,20.92211967769032,72.63203465100311,1.9148617866449055e-05,0.9936348199844359,0.0063419952057302
63,95,0.5630636182745719,11.802540996548775,51.59234362890388,3.084243871853687e-06,0.9951834082603456,0.004807823337614536
64,96,0.2574941441078015,6.142169958469468,18.46729159580082,6.0849697547382675e-06,0.9978266358375548,0.0020409086719155307
65,97,0.5304086603414281,17.81089607904903,53.15968274575569,1.4220142475096509e-05,0.9883811473846436,0.011593692936003208
66,98,0.25123871024485617,19.831044395862232,167.12381535027848,3.1844636396272115e-05,0.991769790649414,0.0077797621488571184
