,event id,width,length,azwidth,p_spot,p_track,p_worm
0,2,0.4893171027050451,22.027047481428966,61.62628723200208,0.0004593624034896493,0.966827154159546,0.03250052034854889
1,3,0.3362853540003018,11.7119171796171,115.82176726601006,0.00010285588359693064,0.9893488883972168,0.010508508421480656
2,4,0.5057174038191335,13.232326179904009,1.1087502447851079,1.784827691153623e-05,0.9852288365364076,0.0147507069632411
3,5,0.5568861046456152,18.588420823827306,4.995735231593691,0.08901628106832504,0.5599187016487122,0.3456547558307648
4,6,0.6423380355704423,16.97010503151546,181.3727565451546,0.002882163971662521,0.6406205296516418,0.35602888464927673
5,8,0.4795637538507659,25.31842687970397,485.07806450393247,0.00020697405852843081,0.9626153111457824,0.03545276448130608
6,9,0.451370601582109,10.272458022891737,61.50534083281658,0.0007195673533715308,0.9911207556724548,0.008149891160428524
7,10,0.7819971881054012,17.8191901822833,112.46110496772587,0.000979010947048664,0.3059693276882172,0.6930093169212341
8,11,0.3523197729071341,22.229034750069104,105.36429534645252,0.0005765174864791334,0.8842570781707764,0.11496393382549285
9,12,0.8741876077129247,25.17975268592341,195.8789307397508,0.029844839125871662,0.0206197053194046,0.9495320916175842
10,13,0.7180012230425866,30.824532745051393,52.8135489306586,0.4698798060417175,0.02801463752985001,0.5018622875213623
11,14,0.5595464616995443,26.974168275341395,4.861914032455147,0.00030470720957964664,0.8300573825836182,0.1690613329410553
12,16,0.3602357936514238,21.033333415990747,43.54689941435679,1.1427765457483474e-05,0.9974840879440308,0.002383608603850007
13,17,0.4144767081561677,22.620522723862766,425.3499045770555,0.000542841327842325,0.9631916880607604,0.03559165447950363
14,19,0.5506618857478396,32.15080207185764,223.79324560489945,7.589590677525848e-05,0.9728059768676758,0.026665816083550453
15,20,0.4033418925944084,25.903088171798547,352.109845496815,0.0003192733274772763,0.9762811660766602,0.02282063104212284
16,21,0.9956090305992292,22.931566324998062,16.770784126033252,0.25582367181777954,0.00192919746041298,0.7422417402267456
17,23,0.3504015561677961,25.983093857353893,14.239313260554367,0.00015267959679476917,0.9833568334579468,0.01643109694123268
18,24,0.7479402032238686,24.652583588436407,311.3975271512371,0.07036428153514862,0.08073550462722777,0.8488673567771912
19,26,0.5182010755348966,14.929335194657858,17.713677339198803,0.00012792968482244757,0.9866324067115784,0.012968437746167185
20,28,0.8684708535131802,14.57855862394746,118.54944335061363,0.22885170578956604,0.027797961607575417,0.743241012096405
21,29,0.3687044930378184,8.866235262827846,17.73826815874171,3.555908187991008e-05,0.9957947731018066,0.003515295451506973
22,30,0.3952119968237044,19.801730079023265,58.72051158300601,0.006057746708393097,0.8978634476661682,0.0646284744143486
23,31,0.5104862566431966,24.116689782030054,94.062310997307,0.00021654558076988903,0.9648261666297911,0.03400806337594986
24,32,0.5218187086262308,9.391516044834454,67.29630751026423,-1.0,-1.0,-1.0
25,33,0.34012277173886923,21.34539642948652,24.953253539384303,0.013591979630291462,0.9568552970886228,0.02739003300666809
26,34,0.2163415409234805,13.896279921601447,108.33895544125484,9.284975931223016e-06,0.9921956062316896,0.007624321151524781
27,36,0.6560544208672272,21.693578658202235,218.5730664162127,0.0013302417937666178,0.9140923619270324,0.08363965153694153
28,38,0.3967534097006105,17.321189796528685,125.9290045371378,0.0017923336708918214,0.9716747403144836,0.0264641847461462
29,39,0.3676368333483343,25.605147727422924,495.19191641638236,8.034699567360803e-05,0.9365036487579346,0.06297758221626283
30,41,0.4465770430528636,23.079099762672328,25.449774794630862,-1.0,-1.0,-1.0
31,42,0.4399511946224453,16.81625266671773,75.92841403955208,4.737985364045017e-06,0.9908879995346068,0.009075840003788471
32,44,0.2604352817131467,17.606587257076672,161.44430486351754,0.0001852655987022445,0.989243984222412,0.010533234104514122
33,45,0.44471308943119575,23.982772052414926,34.77552658667344,0.0004452991124708206,0.9575788378715516,0.03683093562722206
34,46,0.4674679569266961,18.14529228267254,17.460032401959776,3.140494300168939e-05,0.9846431016921996,0.015316709876060488
35,47,0.4248447016819978,23.907930035674706,74.91488442296044,0.00022446410730481148,0.7609323263168335,0.2381737679243088
36,48,0.3688810521395129,6.964792190547745,25.51190061036521,1.2710193914244884e-05,0.9916497468948364,0.00814859662204981
37,50,0.5826071250587915,12.323056568891847,92.98361012174514,-1.0,-1.0,-1.0
38,51,0.4419829990077149,23.849241998740965,16.46956929091666,0.0020683135371655226,0.888889729976654,0.10676492005586624
39,54,0.8715669157134894,12.701923390203454,106.99197655644826,4.6659260988235465e-06,0.9957808256149292,0.004080380778759718
40,55,0.8926022387532526,21.139685351253615,266.73993151349913,-1.0,-1.0,-1.0
41,57,6.0743281919968215,305.1109486719253,90410.65170898396,0.7865282893180847,0.006555677391588688,0.20688709616661072
42,58,0.771915840930263,22.1130490091087,267.0235286463052,0.0006897205021232368,0.954659342765808,0.04168771207332611
43,59,0.6282130164262458,18.044078938780643,1.1823788998302265,0.029399996623396873,0.4577881991863251,0.5123654007911682
44,60,0.5567769676027673,29.76716186174898,41.52075621104536,0.05553479492664337,0.2243080139160156,0.7133998870849609
45,61,0.4105520690656225,19.70445611778786,153.61072513724233,0.0070326360873878,0.8400692343711853,0.1488446444272995
46,62,0.643127087469126,29.042353836632557,619.8215770945194,0.0006525880307890475,0.949428141117096,0.04978560656309128
47,63,0.70725787580749,6.564140996359723,9.932273734952194,0.6634712219238281,0.14640454947948456,0.18810279667377472
48,65,0.3731497186722184,21.52585477314039,169.49040871530232,0.001171739655546844,0.7660935521125793,0.23264028131961825
49,66,5.104844821489633,6.7047967593910816,40.97762201258108,7.621855729667004e-06,0.9971182346343994,0.002660034224390984
50,67,0.6890875772045997,32.297570664292074,47.37338015123471,0.0001863305660663173,0.16726212203502655,0.831195592880249
51,69,0.4847343073785156,24.705618017400536,196.6927966635392,0.00010998560173902659,0.9769355058670044,0.022941166535019875
52,70,0.7947041455579973,21.6776452573124,2.959753881763279,0.0005394617328420281,0.9816949367523192,0.017681583762168884
53,71,0.3657643384736533,8.695609977521697,67.51547370836212,0.0003846704203169793,0.03783236816525458,0.9617592096328736
54,72,0.4579558708842978,14.592797882939351,129.1595707641439,0.010555773973464966,0.9099859595298768,0.07932966947555542
55,74,0.3985382595013132,11.231822385769405,85.33789175309495,0.00575361680239439,0.8564867973327637,0.1375615894794464
56,76,0.638980154602,15.465757832048954,32.000825779201826,0.00026977789821103215,0.9286954402923584,0.07091566920280458
57,77,0.6302913819903176,40.45981429512065,14.662719892875952,3.2352734251617217e-06,0.9942055344581604,0.005782225634902716
58,78,1.3602026546840111,12.076922336640385,52.8043956805146,0.8314489126205444,0.0660051703453064,0.10181350260972977
59,79,0.7578431733958865,35.260877191570984,495.7775407214949,0.0201201755553484,0.02930116280913353,0.9505494832992554
60,80,0.4890211123625907,12.318210349778305,50.95863523595085,0.005151360295712948,0.0063822390511631966,0.9884651899337769
61,84,2.002777752319853,14.576711533426126,93.44782341679793,0.20853668451309204,0.6090360283851624,0.18080827593803409
62,85,0.7020143321239509,35.267252055580805,2.2379998479687035,0.00034990577842108905,0.9293314218521118,0.0700196847319603
63,87,0.4022764777112969,12.69262456721244,75.61694442267145,0.5579369068145752,0.09629788249731064,0.3456641435623169
64,88,0.3405212477190896,19.05013242501928,225.85022970522857,0.0052287192083895215,0.9208955764770508,0.07350384443998338
65,89,0.7423923039792059,31.62691008295389,187.5195473789697,0.00015608953253831714,0.9254617094993592,0.0743582546710968
66,90,8.126371499603431,87.56708875251955,3976.285768531067,0.08927277475595474,0.08595703542232512,0.8247422575950623
67,91,0.2683469448877544,6.164596059094897,21.611977775793935,1.7342879800708033e-05,0.002091358182951808,0.9978901743888856
68,92,0.5467302157236589,8.905754427170509,35.4943606728294,4.407392043503933e-05,0.9925641417503356,0.007193556986749172
69,93,0.6191606510410042,30.856544993896538,0.6017032114607972,5.146683906787075e-05,0.9593226313591005,0.0406113937497139
70,94,0.483547966148617,21.06613455170196,50.35246682355341,1.1614258255576715e-05,0.9958091974258424,0.004167333245277405
71,97,0.3288733055338464,32.409412728670404,84.81869475236984,4.3448126234579825e-05,0.9868724346160888,0.013046489097177979
72,98,0.5298158098358935,20.87336906538177,155.6432887348629,2.7992586183245287e-05,0.9830499291419984,0.016893690451979637
