,event id,width,length,azwidth,p_spot,p_track,p_worm
0,1,0.5472445295970584,10.518073425303577,39.78076126164099,0.19635379314422607,0.2927442193031311,0.4554180800914765
1,2,0.5643185881806068,8.431073308836469,26.45436959795381,0.024542231112718586,0.4539623260498047,0.4978663623332977
2,3,0.4999528694778363,11.964989092620904,52.87133816410592,0.003212201176211238,0.6064896583557129,0.08100973814725876
3,4,0.4915449376653736,0.5007118905458183,0.2492980089456472,0.08692032843828201,0.2446793615818024,0.14201460778713226
4,5,0.5088439143361814,8.28529390156212,26.20426825570896,0.00017756367742549628,0.820296049118042,0.17658497393131256
5,7,0.4984368518974784,14.215014834075145,73.03898134024624,0.008428092114627361,0.17991285026073456,0.22084340453147888
6,8,0.5387869586398318,8.829058632545888,28.29736227027205,0.031009756028652188,0.7188897728919983,0.2454729974269867
7,9,0.4919086918028513,4.8915176743350495,9.050417057084646,0.00034429237712174654,0.6908619999885559,0.3086302578449249
8,11,0.5726665020372015,13.062369272824938,61.92042480214928,0.002231309423223138,0.7924901247024536,0.17857885360717773
9,12,1.5258789062459698e-05,6.639214807176237,16.193653127991677,0.02219550497829914,0.7031697034835815,0.2362749129533768
10,13,0.498056621328008,10.365873307322053,39.05251442635952,0.344768226146698,0.03701310977339745,0.6174599528312683
11,14,0.5741527454833145,11.508802813378587,48.647364867605255,3.500399907352403e-05,0.9894102811813354,0.01048991084098816
12,15,0.5834602617896416,11.475897392789244,48.08497933356786,0.0002774138411041349,0.8753231763839722,0.11270706355571747
13,16,0.9108802405111408,5.258718292708122,9.653849433978474,4.155138867645292e-06,0.013337344862520695,0.9866564273834229
14,17,0.5777508891434807,4.100258860009672,6.556965528411079,0.052726764231920235,0.15694625675678253,0.7881541848182678
15,18,0.8357402954778752,7.956908146134003,22.648613653677522,0.001209911541081965,0.007841730490326881,0.9909421801567078
16,19,0.5436602561105824,12.775548802556045,60.43316932911356,0.004028002265840769,0.27053487300872797,0.6994097232818604
17,20,0.4044491633358847,10.817576985822992,42.624226170007006,0.11619521677494048,0.24330395460128784,0.6381913423538208
18,21,0.6127446822868096,4.265594443470032,6.944833093348025,0.06288347393274307,0.4014199376106262,0.5159141421318054
19,22,0.2635345829053912,8.728558118936734,28.229253964698124,0.03699885308742523,0.4376364648342133,0.3137313723564148
20,23,0.2639210099871037,4.918257800931045,8.746572854646923,0.0035684120375663038,0.5268636345863342,0.434911847114563
21,24,0.4114384713743462,4.715679686263102,8.102046606797304,0.006800169125199318,0.8675699830055237,0.09068570286035538
22,25,0.6839221263938261,8.013531174375464,23.69375069995112,0.16035304963588715,0.25787293910980225,0.5803968906402588
23,26,3.6148069625836734,5.514450776479279,18.220367785942585,0.0007775105768814683,0.8228427767753601,0.069989874958992
24,27,0.593484599418027,7.053471546991978,17.84580507546006,4.9248333198193e-06,0.004949439782649279,0.9950454235076904
25,29,0.7200993980588055,10.90233639249057,42.01256466650607,4.2080722778337076e-05,0.00020821369253098965,0.999744713306427
26,30,0.4751119420954113,11.883008541784939,50.867103919920865,0.0033933892846107483,0.6534757018089294,0.3401188254356384
27,31,0.2657294287169939,9.088565474328362,30.11288948154425,0.021440345793962482,0.8431709408760071,0.08306851983070374
28,32,0.5073474834281053,10.116953443930518,38.73831711875282,0.0005697499145753683,0.01399749331176281,0.9853648543357848
29,33,0.451984887418714,7.17174864709504,18.742980894051627,0.0018220888450741766,0.8164996504783629,0.091850146651268
30,34,0.41437741727763067,12.139379331871712,54.3029017774729,0.0524149015545845,0.4114033877849579,0.5354582071304321
31,35,3.087323467482384,55.1828429412879,2530.282368200504,0.006706016138195992,0.50189208984375,0.4689697921276093
32,36,1.0681173053297672,5.941761542681771,11.690815493910987,0.05095388740301132,0.2618643045425415,0.6775787472724915
33,37,0.26712102760656664,5.424817553003887,10.452754581435226,0.3677810430526733,0.19358974695205688,0.43749281764030457
34,40,0.4638751629628966,9.3482202883536,31.384331320004488,0.0022837957367300987,0.1903947591781616,0.8072580695152283
35,41,0.5678127802150875,15.980879787569654,91.5649308416717,0.8629050254821777,0.00156860682182014,0.13552142679691315
36,42,0.4796882947497398,17.376985527761722,111.18452794022645,0.0010653140489012003,0.8313374519348145,0.07771530002355576
37,43,0.6766576585619082,11.692969941337983,49.41398326481,0.9889216423034668,0.0006821586866863072,0.0010858656605705619
38,44,0.5188247996604198,18.025615171130845,116.68030938593792,0.0071371812373399734,0.12371045351028442,0.0729760155081749
39,45,1.1033028577781727,6.01380246791224,15.880602323903544,0.004016239661723375,0.7870197892189026,0.13026177883148193
40,46,0.19203334120200968,8.729594722400005,27.648276636163,0.012454356998205185,0.6477242708206177,0.3039109706878662
41,47,0.5409506148342303,13.423242501754165,66.5263521610388,0.9829643368721008,0.010776237584650515,0.005206599831581116
42,48,1.0789593218788871e-05,0.4999979580710857,0.1577464833320959,0.006369456183165312,0.015687437728047367,0.9778680801391602
43,49,0.3707274942524097,2.2825303109288893,2.4831682575894543,0.0017146531026810408,0.9330950975418092,0.06376361846923828
44,50,0.4235696084362861,12.218584645500233,55.56641229729919,0.4966673254966736,0.07579982280731201,0.416574627161026
45,51,0.402706876420482,19.18124721753217,134.0924262543173,0.1270650327205658,0.30934640765190125,0.5627340078353882
46,52,0.8240785722783798,10.869123614745321,43.504094447608054,0.0042591290548443786,0.1777021735906601,0.8158385157585144
47,53,0.5888557892670668,16.450478512075314,98.19045315656844,0.06529896706342697,0.11193200945854187,0.0511895939707756
48,54,0.4976672278823164,7.4377844298904305,20.176263993485545,0.05856286361813545,0.19094683229923248,0.1497003585100174
49,55,0.39814094499297614,6.5480576170970615,15.822291191740739,0.0018558227457106113,0.34591466188430786,0.6434072256088257
50,56,0.30443505028590234,10.22763652731632,38.53257820476823,0.0007849636022001505,0.9550479054450988,0.04357205331325531
51,57,0.4409495225046456,16.95859439797218,104.64551690912495,0.11991211771965027,0.008768056519329548,0.8712971210479736
52,58,0.7167543728148721,3.388624387898332,3.517470503972352,0.5787965655326843,0.032321661710739136,0.3877011239528656
53,59,0.3495361896107751,8.722843285476525,27.897084252576388,0.003067580284550786,0.5543948411941528,0.3638807833194733
54,60,0.5846457570935106,12.801822331319876,59.73216559929134,0.13959002494812012,0.7107009291648865,0.11802851408720015
55,61,0.3591784294051651,15.693300937206638,90.24851308928059,0.24346280097961426,0.5165213942527771,0.21766796708106995
56,62,0.5543814749996085,17.491990364563264,109.3483532796622,0.007046389393508434,0.7825130820274353,0.1960930824279785
57,63,0.4728315990914536,12.482322857526645,57.8396072581777,0.03734686598181725,0.4424182176589966,0.5131585001945496
58,64,0.5568370485552232,13.939151391700134,69.86413572993024,0.0010869632242247462,0.8576740622520447,0.13937871158123016
59,65,4.078184506030176,10.145121438418682,25.85760936612956,0.01463105995208025,0.116836279630661,0.863744854927063
60,66,0.4135067176516348,16.60057655228987,94.81383063254653,0.0062462342903018,0.8083289861679077,0.1826413720846176
61,67,0.5296412533290585,2.6380754953328007,2.8361316831553496,0.2739284038543701,0.11178665608167647,0.6135627627372742
62,68,0.3505280512873173,11.626990038044172,46.72549561868772,0.04951457679271698,0.1532876342535019,0.16245391964912415
63,69,0.684053469813507,17.827873888412963,115.16103363693793,0.1154186800122261,0.19931240379810333,0.6793414950370789
64,70,0.41466873290434897,10.155884513785256,39.22433966525945,1.7062069673556834e-05,0.015429577790200709,0.984541654586792
65,71,0.3277361140642368,12.744956573678285,59.31627543676663,0.942006766796112,0.001097103813663125,0.002438807161524893
66,72,5.959535814851344,54.605111043364886,801.0142718222661,0.022511227056384087,0.5964253544807434,0.3724272847175598
67,74,0.4432947789042681,9.07544933211573,29.24792288830675,0.0090553667396307,0.06901843100786209,0.043222252279520035
68,75,3.501013334372232,60.96738575020113,611.3501063434328,0.03227240964770317,0.3817758560180664,0.5615032315254211
69,76,0.5675281692550389,6.130986629885043,14.060111145251089,0.0940323993563652,0.7726883888244629,0.11155157536268234
70,77,0.4755041384510981,18.020505073431686,115.55611686790886,0.050404038280248635,0.5490652322769165,0.149000346660614
71,78,0.7604193759339973,12.584563896071607,55.28140814910275,2.273685233145084e-11,7.339613603107864e-06,0.999992609024048
72,79,0.7109112961908142,5.4347014349195195,10.962990873141283,0.09606657177209854,0.5721041560173035,0.14504383504390714
73,80,0.4773225777067222,8.382161342233717,25.256145884029934,0.08383041620254518,0.3703366219997406,0.5428377389907837
74,81,0.4184421604038079,5.312829531338899,10.848203586455126,5.875514034414665e-05,0.003354246495291591,0.9965862035751344
75,82,0.6478386532092384,8.241573817191068,25.11019338223109,0.02730420418083668,0.07919065654277803,0.8912363648414612
76,83,0.4532515937973781,4.980874930146891,9.015703297360183,0.003683857852593064,0.5971764326095581,0.15506397187709808
77,85,0.5803452607781674,11.013840069873664,42.96613873101632,0.0176441241055727,0.057359766215085976,0.9246136546134948
78,86,0.8443976852020189,10.552470687184368,39.5229828373288,0.0007068691775202751,0.0075802989304065704,0.991706609725952
79,87,0.7425293524164165,10.179219825221447,37.358029169739574,0.2507818341255188,0.5441861748695374,0.19446557760238647
80,88,0.4614505817362799,3.525022703750299,4.626078666708633,0.00668749213218689,0.7780060768127441,0.20993736386299133
81,89,0.2958661957953644,17.308987953782104,103.95589278121427,0.00010182082041865216,0.04505604133009911,0.9547938704490662
82,90,0.5636116654460096,14.5911998693683,76.12057661292884,0.000975852832198143,0.06637009233236313,0.93255215883255
83,92,0.7599933850546824,18.23599726313845,113.16353372520412,0.5775103569030762,0.10419299453496933,0.3178725242614746
84,93,0.34957943172389216,14.370025666959634,72.69941239772227,0.001810672925785184,0.5744960904121399,0.41720959544181824
85,94,0.525488974278037,17.532513422425932,111.01340644486868,0.0012480842415243387,0.03740730881690979,0.9613332152366638
86,95,0.4620001771724977,7.987532681039406,22.57012723492765,1.7710117106162215e-07,0.0003827453183475882,0.9996170997619628
87,96,0.6704401181899474,10.163025650151884,37.44798296520164,0.0010408505331724882,0.8425918817520142,0.14545466005802155
88,97,0.2681841987326856,12.484627786514617,56.304144242801655,0.28574177622795105,0.5923994779586792,0.11105231195688248
89,98,0.6431899151385289,4.694651812355811,6.1539462476323035,0.014787075109779838,0.19077706336975087,0.16507749259471893
90,99,0.5687849056109819,9.519067666394758,32.0616897120056,0.000487895478727296,0.8267188072204591,0.06411590427160263
91,100,0.3012134502868459,14.37202656414379,76.58382564235484,0.2075546681880951,0.006603569723665714,0.7858284115791321
