,event id,width,length,azwidth,p_spot,p_track,p_worm
0,1,0.5550050664228784,13.329324954476698,4.162552143199502,0.012203067541122437,0.7894744873046875,0.1968839764595032
1,2,0.4344119936802439,9.926530624512854,1.8792747104788308,1.4562863270839443e-06,0.999104917049408,0.0008903505513444543
2,3,0.6376365994018264,20.235567271163877,5.113941433040916,0.09493426233530043,0.8288198113441467,0.0759892612695694
3,4,0.236773913174477,15.036403868229625,3.631362822617844,0.003594885347411037,0.9129843711853028,0.08280254900455475
4,5,0.44154941950555415,14.93556571506923,3.934133618410258,4.64625418317155e-06,0.9830762147903442,0.016917455941438675
5,6,0.2719758788618869,23.632736218910125,7.120869635256139,8.177461131708696e-05,0.9901677370071412,0.007215483579784631
6,7,0.3460019515746435,8.197507789774251,1.1801202880238129,0.00014392669254448265,0.9378503561019896,0.03380393236875534
7,8,0.6046472655844782,11.66828272555655,2.6436761948594785,2.7205718652112413e-05,0.8616434335708618,0.1383124589920044
8,9,0.5129373188190803,15.59968368044546,3.7291303916908114,0.010621510446071623,0.9613839983940125,0.0269438698887825
9,10,0.538224686075325,8.946443732279656,1.7721271843692514,2.5875081064441474e-06,0.9964172840118408,0.0035359626635909076
10,11,0.3170134686483864,6.724564006863494,0.8761582009442211,0.003240038873627782,0.4868501424789429,0.055560223758220666
11,12,0.3723658600936591,13.402085247392616,2.3800495178297796,2.273630525451153e-05,0.9733764529228208,0.02492097578942776
12,13,0.4937162459458209,15.98879796407609,3.6366408395919536,3.5783603379968554e-05,0.9866357445716858,0.012294012121856213
13,15,0.43489806502141387,11.799121792218795,2.7539704024030685,0.11582121253013612,0.7616559863090515,0.07585167139768599
14,16,0.4935851250512533,13.5304959309951,2.363405047797128,0.00023184614838100967,0.961396872997284,0.03813062608242035
15,17,0.7418275900052149,12.255998245056475,3.7657774479805295,1.9085860003542612e-06,0.9912036657333374,0.00876543764024973
16,18,0.26615946743766145,10.331195701481679,1.5952232310614192,0.006122342776507139,0.799976646900177,0.19366833567619324
17,19,0.3996514917010915,15.016156085265632,3.5387658982232235,0.00014578050468117,0.9591845273971558,0.04027214273810387
18,20,0.4559543190410822,12.28379317916985,2.657211013798188,6.705857231281698e-05,0.9370778799057008,0.006047762930393219
19,21,0.4780007283989817,12.055625010830619,2.3571204791845086,0.0005615788395516574,0.9715486168861388,0.027828378602862358
20,22,0.4483539767385698,14.708393044556644,3.8759977506057526,1.029467603075318e-05,0.9973590970039368,0.002369171474128961
21,23,0.5949082983891101,22.663724151065587,7.67291886121084,0.0011809759307652712,0.964346170425415,0.0335526317358017
22,24,0.5950765756135684,18.19916884056973,6.873910449384183,0.0009885609615594149,0.9176648855209352,0.08050878345966339
23,25,0.31393968623526664,5.083165288979581,0.5790631014846958,0.014375520870089531,0.6500983834266663,0.33543607592582697
24,26,0.297051328379075,8.868199292620972,1.5974595056695875,1.3300918908498716e-05,0.980612337589264,0.0037953108549118038
25,27,0.4743722931970805,9.435497255017367,1.6621794098433291,1.05107055787812e-05,0.9966006875038148,0.0033309371210634713
26,28,0.4851723834912489,14.087499120752092,3.837530864025224,0.00022250064648687842,0.9592843651771544,0.04041926190257072
27,29,0.3704650651993219,23.53326985932118,7.971015887843658,0.0012030088109895587,0.9632798433303832,0.035350721329450614
28,30,0.5474920383482643,15.697104846404358,5.700467437377622,0.004984934348613025,0.9503594636917114,0.03913779556751251
29,31,0.3449221981579857,4.1216865638171365,0.4859338153504716,2.042495543719269e-05,0.9511264562606812,0.0488276369869709
30,32,5.368229060118785,14.955343475760467,65.51900355603328,0.00015775629435665903,0.9854340553283693,0.01427062414586544
31,33,0.3339200930415923,7.903342252959407,1.3276542854789826,4.8593967221677297e-05,0.005700828041881323,0.9942501783370972
32,34,0.2796456415976705,1.922238514582397,0.25632164380046085,0.005117348395287991,0.9566326141357422,0.03815153241157532
33,35,0.44060549421429546,18.614159755057713,6.157652855672457,0.00014821164950262755,0.9920499920845032,0.007606745697557926
34,36,0.6460024928433153,26.459346653465943,7.092429184982074,0.000995476497337222,0.9851266741752625,0.013163864612579346
35,37,0.5769925247155401,7.067331052159302,1.096937746732794,0.008876896463334559,0.9106493592262268,0.08021735399961473
36,38,2.4528367088888503,40.59783476225301,86.61076471017456,0.0003436182450968772,0.8547852039337158,0.1447536051273346
37,39,0.6446635035044005,4.880545298214379,0.6558542150894756,0.00012933131074532866,0.8678953647613525,0.13107231259346008
38,40,0.7067171666299095,15.060647528961836,3.905627221753088,0.002352874726057053,0.9245312809944152,0.07016434520483017
39,41,0.5100157524432607,7.1785597747814975,1.102665691217921,0.00018814437498804185,0.5533761978149414,0.4463343620300293
40,42,0.6495597002431996,11.882799897400147,2.545057609588194,1.4049126093595987e-06,0.994763731956482,0.005231663119047879
41,43,0.4311014604290807,7.179726054151484,1.1103599867035372,0.0001288046914851293,0.9587830901145936,0.04090782254934311
42,44,0.6393473168751311,20.92983598758582,5.382362047327536,0.0002884651767089963,0.9510350823402404,0.04827465862035751
43,45,2.240836274965873,5.313714465636108,10.688468244547408,0.4089931547641754,0.10674500465393066,0.4841008484363556
44,46,0.4050559944800137,7.285281617956087,0.7925559656768727,0.0025732633657753468,0.0030423160642385483,0.9943751096725464
45,47,0.6362118914049746,9.228557966346047,1.4666099708743578,0.004594858270138502,0.9846996665000916,0.010662871412932871
46,48,0.6163282653080335,9.588858421308807,1.591228277969014,5.41797598998528e-05,0.9757093191146852,0.024163797497749332
47,49,0.4112412148670704,8.27286260946272,1.6242012427339907,8.55559337651357e-05,0.9341692328453064,0.06571178138256073
48,50,0.4625115378599364,9.031980639044454,1.8565644586135208,0.5279169082641602,0.3740899562835693,0.0978906899690628
49,51,0.9151152554786824,8.127839967751374,2.221504909111598,4.4286745833233e-05,0.9174398183822632,0.08239828795194626
50,52,0.6721884130064977,17.219758832116867,4.874857306528294,0.0733216255903244,0.10261929780244827,0.8240048289299011
51,53,0.5665879710621416,8.208469766726566,1.47170165237648,0.12509654462337494,0.40475317835807795,0.4698908030986786
52,54,0.625332943556014,13.918740713482599,3.0171289645109955,2.4034226953517652e-05,0.9760849475860596,0.023866977542638786
53,55,0.5221031974152975,22.904704822760525,8.343924808093513,0.0046142274513840675,0.8704503774642944,0.12466219812631607
54,56,0.4712263050941644,23.42735203303669,8.785931985234672,0.036147207021713264,0.520792543888092,0.43570125102996826
55,57,0.3618414239778014,16.475462855828127,4.7101107457816855,5.486088048201054e-05,0.9867908358573914,0.010033968836069107
56,58,0.6063856090463563,15.225316894443829,3.8658770285167634,8.74573288456304e-06,0.9958946704864502,0.003721256740391255
57,59,0.6274817518652441,5.4993227432614455,0.9069658650857144,0.051303427666425705,0.6379429697990417,0.30889731645584106
58,60,0.5514221409919458,25.60713815974939,8.910388600958179,0.0002467883168719709,0.925454556941986,0.07416723668575287
59,61,0.28932788799385456,9.834523735148725,1.7700153807959105,0.0022081013303250074,0.967092752456665,0.029609747231006626
60,62,0.6554832077001138,12.101082736208081,2.6944466608067126,0.0002043774729827419,0.9786688089370728,0.020453382283449173
61,63,0.6316829276440598,17.907122715770914,5.435049445227278,0.0060159312561154366,0.8770467042922974,0.109340101480484
62,64,0.4455753717768744,12.433048235221126,2.68489154178694,0.2729887962341309,0.41716980934143066,0.3043961226940155
63,65,0.564731304361982,6.771621801370075,0.9577888964658712,5.5559276006533764e-06,0.7096987366676331,0.29028216004371643
64,66,0.09057648137304687,12.727778108890016,2.8449283593115795,4.910599727736553e-06,0.9926201701164246,0.007373347412794828
65,67,0.3393386607634752,10.892039083440464,2.404090120971503,0.22389523684978485,0.673153281211853,0.05513127520680428
66,68,0.9824555926706752,10.969646513305085,2.599240279174001,0.0024765962734818463,0.9453433156013488,0.052089642733335495
67,69,0.22382109500071684,6.3535627397814265,0.9800482089470834,0.013204912655055523,0.07368217408657074,0.9131062030792236
68,70,0.4096419730578367,8.657458034725748,1.7439943006541163,0.0002369842841289937,0.9897515773773192,0.00958078633993864
69,71,0.444393724254395,19.13486764572336,5.835818302853987,7.496649050153792e-05,0.9442607164382936,0.05527769774198532
70,72,0.6619388092731918,22.69534783405508,5.820203112722751,0.00013156287604942918,0.985657513141632,0.014158181846141815
71,73,0.4168419030983438,4.85330475998298,0.549087685874832,0.010507085360586643,0.3341965675354004,0.6547183990478516
72,74,0.30237792501028005,11.134408061729786,2.5230251301692737,0.003869766835123301,0.7701997160911559,0.225793331861496
73,75,0.377973352250043,6.236610664822277,0.8809666582698008,0.01477282680571079,0.9192124605178832,0.06235345825552941
74,76,2.268854087216377,282.1311197051456,308.4859370059295,9.350315667688848e-05,0.9757866859436036,0.021237049251794808
75,78,0.4183422948763248,9.303240717493845,2.119921824515796,5.052924734627595e-06,0.8850726485252379,0.11490823328495026
76,79,0.4518493149569834,4.895205896018744,0.5167084572694186,0.9996238946914672,0.00012697263446170834,8.026620344026014e-05
77,80,0.27521063720726746,8.510876837098957,1.170403644033048,0.00021691326401196412,0.9934083223342896,0.006367581896483897
78,81,0.4018212166146628,24.89578492998098,10.386792057209394,0.00025020641623996204,0.6682529449462891,0.3298664093017578
79,82,0.3085116174366989,5.8992433200829195,0.7385595143347109,6.676984048681334e-05,0.98934805393219,0.010403528809547423
80,83,0.3080622103116249,9.19629560258992,1.3761966153481493,2.9685905246878967e-05,0.9901722073554992,0.009203486144542694
81,84,0.4310658439848465,13.12175883113674,2.617475467199045,0.00010776382259791717,0.9928995370864868,0.005369576159864664
82,85,0.5085498061180977,19.241689157360078,5.838498946405276,5.953566505922936e-05,0.9936944842338562,0.005244527943432331
83,86,2.509257382496776,9.812260808292168,7.2488764990266645,0.01031331717967987,0.8567140102386475,0.11008624732494354
84,87,0.6647904925441284,18.246764555003463,3.944892742870024,1.1930663276871199e-05,0.9953022003173828,0.0034291779156774282
85,88,0.5892230484012061,11.995262390436272,2.7497377389174105,7.274405078305791e-09,1.8720331354415976e-05,0.9988935589790344
86,89,0.4534292383659706,9.025394462993576,1.7815837624879105,0.002519832691177727,0.8316757678985596,0.16465643048286438
87,90,0.18770167874340568,4.443580499414447,0.280322921004695,0.0004384868952911346,0.7587307095527649,0.2406255006790161
88,91,0.1625183458583471,2.662397713824044,0.2658066629867138,5.0793056288966916e-05,0.9823662638664246,0.01750990003347397
89,92,0.6139023973995711,16.394432783785728,5.307578183442722,0.0001149024537880905,0.9925864338874816,0.006922299042344093
90,93,0.7114820643300956,18.03487051105291,5.519417083740716,0.027174632996320724,0.9171397686004642,0.05163368210196495
91,94,0.2748920083776967,13.459972254856732,2.9999337859773463,0.01030348427593708,0.6345734596252441,0.35327455401420593
92,95,0.6509075797890762,17.666075147785012,6.220404038242072,0.9302462339401244,0.02761842869222164,0.040335264056921005
93,96,0.3561145511630444,14.355347240016822,2.547267059893065,0.14650163054466248,0.36162200570106506,0.0890522301197052
94,97,0.4901228003224402,18.85275237509717,5.615988844700537,0.0004061711952090264,0.04668328166007996,0.9528912901878356
95,98,0.29700213834836936,6.798510107551603,1.0025688565827977,0.000257985811913386,0.9710666537284852,0.00934250932186842
96,99,0.5077365933930791,14.648695895166295,3.203042409903459,7.667942554689944e-05,0.9800062775611876,0.01748621091246605
97,100,0.6228389650663835,13.367638763282235,3.157320829276904,2.766362376860343e-05,0.9934930205345154,0.005701622925698757
