,event id,width,length,azwidth,p_spot,p_track,p_worm
0,1,0.5413458251632852,8.952184476087266,29.612185352791986,0.0008578572887927294,0.2867671549320221,0.7119491100311279
1,2,0.4977602008495866,14.317990121111029,75.32719602057715,0.047387342900037766,0.6195783019065857,0.15323342382907867
2,3,0.6088028453125132,18.721945859231013,125.19821723860326,0.5625083446502686,0.053453270345926285,0.3818730711936951
3,4,0.4309785516708229,3.3882443824170667,4.386032026772717,0.007664063479751347,0.7890194654464722,0.14609742164611814
4,5,0.24819501596255106,5.624662344771712,12.065063921716925,8.063942368607968e-05,0.9811782240867616,0.01835992559790612
5,6,0.3312171516349192,19.63582760070903,140.59223486543456,0.01370339561253786,0.007149151060730219,0.010888987220823765
6,7,0.4908246928868895,11.05091662711299,44.48417005712768,0.004215531051158905,0.5480246543884277,0.4369360506534576
7,8,0.4866473591558482,14.813356971182234,81.20659438732528,0.3010368049144745,0.3685576617717743,0.15278515219688416
8,9,0.1600245612243356,12.889714560376351,61.65551064052611,0.008059612475335598,0.8142687678337097,0.1718890517950058
9,10,0.5473142324420405,6.652640056125202,16.66199003150465,0.0012711918679997325,0.5229087471961975,0.4732810258865357
10,11,0.6541184137165613,12.732305383673115,58.79876143341394,0.0011741822818294168,0.15193329751491547,0.8467584252357483
11,12,7.8869350066336725,17.04475131218145,205.23921874926862,5.200001282901212e-07,0.0003381400601938367,0.9996613264083862
12,13,0.19138503094890807,16.728295823614932,102.6608129702711,0.3075018525123596,0.5122506618499756,0.17546463012695312
13,14,5.556125449609122,19.60776847817463,377.4916247908502,3.631307481555268e-05,0.02716140635311604,0.9717328548431396
14,15,0.4900366880993798,9.339980150702974,32.99236113186477,1.8489371313989967e-06,0.9951058626174928,0.004767713136970997
15,16,0.3404958250678816,10.585927144276585,40.78441134542404,0.008964383043348791,0.4590219557285309,0.5278014540672302
16,17,0.5747343547857079,16.06526438495749,97.55564946600413,0.004494556225836277,0.4454735815525055,0.5463144183158875
17,19,0.9833344866233392,12.788397760734133,59.96617143585958,0.15694038569927216,0.5566892623901367,0.28317201137542725
18,20,0.2263675605631724,9.05734196904178,29.20550867357712,0.9990893602371216,2.0027646314702e-05,0.000889885937795043
19,21,0.6680969538778984,15.078311355655439,82.36907488752679,0.0031691796611994505,0.8743742108345032,0.09660690277814864
20,22,0.3365581771058637,10.366546154303578,39.37058788559071,0.010026341304183006,0.3702274560928345,0.6152660250663757
21,23,0.4810889492348818,12.965594034299073,62.404034182874135,0.0002427673462079838,0.8512871861457825,0.03582320362329483
22,24,2.6428997918184266e-05,9.881692318190037,35.40463693507808,0.12544679641723633,0.7598872780799866,0.10309729725122453
23,25,0.6501521375294397,19.229832435336398,131.11641100393442,0.008078720420598984,0.012743801809847357,0.015171724371612072
24,26,0.8709821038543847,11.275670320246801,45.01951063844469,0.00024069818027783183,0.8774210810661316,0.11666662245988844
25,27,0.6676865419317525,13.742991692999787,65.18581662523364,5.086916280561127e-05,0.004492258653044701,0.9954552650451659
26,28,0.4853132570898544,12.723084430793323,60.377534688184575,0.0009219109197147194,0.2309483885765076,0.7661136388778687
27,29,0.3461899697204949,13.48290274468258,67.05504146322518,0.00197864999063313,0.4325593709945679,0.5593134164810181
28,30,0.4553519410270289,11.005152544094367,42.80076479673062,0.00029276017448864877,0.9062734246253968,0.08900178223848343
29,31,0.6638196485545265,13.515006306301085,68.54043403419716,0.004073600750416517,0.08139944076538086,0.07956510037183763
30,32,0.4940015584091616,0.7623946613629682,0.3320640034303837,8.627438546682242e-06,0.031000113114714626,0.96897953748703
31,34,0.42625275795978257,13.91355451705572,71.12549416042734,0.6459378600120544,0.20871786773204806,0.14386948943138125
32,35,9.582125865403881,223.76424428353752,2176.203387880165,0.007405383046716452,0.4351167380809784,0.34497448801994324
33,36,0.3672870753405272,16.579646214100038,100.91627251305785,0.011704759672284126,0.8989392518997192,0.08526169508695602
34,38,0.6127865288701387,9.200576509956964,31.41372267219429,0.00044986754073761404,0.9477628469467164,0.03248875215649605
35,39,0.394087078547486,14.106375920054347,74.32949263673966,0.8420850038528442,0.07716475427150726,0.07884481549263
36,40,0.729649067859596,18.175006027911977,119.92751854233349,0.3655894100666046,0.3718929588794708,0.09810668975114822
37,41,0.4964058793361357,10.990283595123687,44.95958384964157,0.05871402472257613,0.20848864316940308,0.7095862627029419
38,43,0.5294912270641599,22.27660635881814,179.2942044165657,0.6396579146385193,0.13802599906921387,0.21957692503929133
39,44,1.308804839752688,49.34312524706992,368.59596873529966,0.12285300344228745,0.09905820339918137,0.7770747542381287
40,45,0.4223655208293027,23.321583295480426,198.79049809248784,0.010521828196942806,0.4898909032344818,0.498515248298645
41,46,0.4560420166875772,10.309491605877655,39.660659321847284,0.013150777667760849,0.5129873156547546,0.4686946570873261
42,47,0.2170315552087521,20.002917992969913,153.3431834613477,0.00011038630327675493,0.9339159727096558,0.05982804298400879
43,48,0.2644058992560115,15.926890923589172,89.74048511822521,0.00013492799189407378,0.9449031352996826,0.05279901251196861
44,49,0.3740664543160169,12.252859635500768,56.04022717298136,0.03418747335672378,0.8511397838592529,0.11234991997480392
45,50,0.5610236718188671,8.93304928635055,30.523851532055417,0.018316633999347687,0.4775186777114868,0.4423200488090515
46,51,0.3713590902655748,8.931861363162115,30.34886495860351,0.9546048045158386,0.017978956922888756,0.02729187346994877
47,52,0.4856330080541985,10.974511893715153,43.71559036137623,0.004566564224660397,0.9579751491546632,0.03444260731339455
48,53,0.22862869682619485,13.35405722269795,66.50841730392351,0.008987952955067158,0.37838849425315857,0.5468345284461975
49,54,0.4838590409969004,11.489324565286207,49.19641319496576,0.002180966082960367,0.18592733144760126,0.8112674951553345
50,55,0.4957706645452245,10.172104632927793,37.26158344353526,0.0012669134885072706,0.666608452796936,0.2994288206100464
51,56,0.4820135386889449,7.620792331542126,20.669884723652345,0.0018959705485031009,0.2530825436115265,0.10088225454092026
52,58,0.4890512159467446,4.5962925392563525,7.7140044132471575,0.050820641219615936,0.3859593570232392,0.5623402595520021
53,61,0.5949949945741437,21.858696130418274,172.6993739631197,0.025607876479625702,0.21306374669075007,0.2686154842376709
54,63,0.2913460550905165,9.104185468981383,29.33958918069093,0.0032252848614007235,0.595214307308197,0.17810814082622528
55,64,0.5236588547824048,18.128726126696705,120.29580115723559,0.0029057059437036514,0.30440738797187805,0.0491243377327919
56,65,0.477318066116791,11.932118982082304,52.33525204759178,0.03677809238433838,0.7899363040924072,0.09592880308628082
57,66,0.5156256325431612,17.452158467319194,111.79512690317397,0.005330069921910764,0.7107855081558228,0.2828235626220703
58,67,0.3953928614799812,13.441949416436918,66.91458721849385,0.20516306161880493,0.5234781503677368,0.13484373688697815
59,68,0.4832264089956936,8.806277185923399,28.74170839529239,0.01711636781692505,0.2451153248548508,0.1036364808678627
60,69,0.8030008184627673,19.22061849724631,131.5057205622366,0.0028350199572741985,0.779555082321167,0.21090447902679446
61,70,0.2327184914468307,19.979188945810908,142.76296213223662,7.805949280736968e-05,0.9783715009689332,0.01928048580884933
62,71,0.7880122470491637,6.685093341213608,16.688820442328517,0.3837779760360718,0.36559799313545227,0.17960213124752045
63,72,0.4712814691874189,13.736774787806738,68.8699913781769,0.002448968356475234,0.10366934537887572,0.8934014439582825
64,73,0.5339086204684202,8.756025884962762,28.13403772815896,0.0015170132974162698,0.4112643897533417,0.5861098766326904
65,74,0.505593514700166,13.572410754877168,67.68382046959192,0.001701968489214778,0.9056504368782043,0.0664316713809967
66,76,0.372136568271309,22.027789974589734,181.549430526515,0.0019252548227086663,0.7145686745643616,0.13290360569953918
67,77,0.8837833113104561,4.176617784881215,5.3564393941021935,0.022809961810708046,0.2604943811893463,0.3680534064769745
68,78,1.0400913772524896,13.475161018857227,66.65307011382089,0.9362685680389404,0.0012525974307209251,0.062467224895954125
69,79,0.6057933023347984,12.243352964234946,56.04171831288412,0.29373303055763245,0.08055831491947174,0.2272402048110962
70,80,0.4510674275234422,11.077302753314896,45.768990656526306,0.12678590416908264,0.05877373740077019,0.8127169013023376
71,81,0.4720100500101353,12.428407179121098,54.886946724395415,0.029940230771899223,0.25083842873573303,0.5994338393211365
72,83,0.3869664273361355,6.393745468714925,16.217338097841015,0.0015069791115820408,0.4731961488723755,0.5233665108680725
73,84,0.4553402951806712,10.74726271643542,43.44057997322688,0.037162799388170235,0.35984444618225103,0.5656294822692871
74,85,0.3926102288341689,11.277291785214846,48.14879214171742,0.08935409784317018,0.21339040994644165,0.6961184740066528
75,86,0.7997295645678304,11.11402676216006,46.269327955083476,0.03790784627199173,0.8259460330009459,0.08161794394254683
76,87,0.758639443245908,7.627999571385202,23.74385034473599,0.002558632753789425,0.011699320748448372,0.985734224319458
77,88,0.7221629699587968,22.336083864275302,182.8844358880091,2.277531530125998e-05,0.006624943111091852,0.9933478236198424
78,89,0.4630639240880575,5.874830411412603,12.902365495927475,0.004126777872443199,0.4819041192531586,0.5123039484024048
79,90,0.4722149353237444,15.684579351540675,90.02984367318932,0.049161899834871285,0.195378839969635,0.16899944841861725
80,91,0.589743167056852,4.717568739853658,8.572953431146814,0.0017475505592301488,0.38985615968704224,0.039424143731594086
81,92,0.6553834718023615,15.877041596034525,92.49778660930052,0.001823983620852232,0.871394693851471,0.05444744229316712
82,93,0.2969595712313447,6.537943896959146,16.250794640605278,0.0004438069008756429,0.7997905015945435,0.15633748471736908
83,94,0.3930550496543213,18.939419240709675,128.4696042603509,0.0004642655549105257,0.9174929857254028,0.06703461706638336
84,95,0.4483820426709663,18.289324485691022,120.53500555214492,0.0005389179568737745,0.8754700422286987,0.12168685346841812
85,96,0.4475298068352673,7.508617723831228,19.795632101314077,0.002560751745477319,0.42373988032341,0.5728598833084106
86,97,0.4902226137322565,11.529398597375446,47.28844521047068,0.001974860206246376,0.054186996072530746,0.9434821009635924
87,98,0.3648770770967084,9.560777715407015,33.27588930332425,0.09372375160455704,0.2205333113670349,0.6841017603874207
88,99,0.6971078986281855,16.577626748378588,99.08687131011787,0.01353011466562748,0.2978140115737915,0.6831252574920654
89,100,0.4798147322439298,11.910695065724127,52.92716610208335,0.02101192809641361,0.4791073501110077,0.4474245607852936
