,event id,width,length,azwidth,p_spot,p_track,p_worm
0,2,2.597813918977005,98.68928055760449,7320.306559448763,1.0845732504094483e-05,0.9524164795875548,0.04757003113627434
1,3,0.8031303978921849,0.8843988990168324,0.7685784006517848,0.9999997615814208,1.0320761134607892e-07,1.6469643071559406e-07
2,5,1.0207949305969868,6.093614120962702,29.23138189443653,0.0002805161057040096,0.6522559523582458,0.3474132716655731
3,6,0.87316847757048,6.93430799783458,2.187881389651727,0.00015119354065973312,0.8765696883201599,0.1232762336730957
4,7,0.8593678366335814,5.361011942644552,6.933533232875296,2.030804125752184e-06,0.9847497940063475,0.015247971750795841
5,8,0.8780550692351291,4.8708143320655335,7.678023107876783,5.224931555858348e-06,0.9683106541633606,0.03168298676609993
6,9,0.8873842689651256,7.064186550647057,5.992228792606766,0.0008299431065097451,0.8635365962982178,0.1356019377708435
7,10,3.7440829809118767,133.4670156588179,17766.073960505702,7.698437002545688e-06,0.9419968128204346,0.05799321830272675
8,11,6.400494163625607,64.58001641134052,3948.3090511580517,0.000461604620795697,0.010512903332710266,0.9890154004096984
9,12,1.2777207770068164,5.7932530961596935,10.818772541288448,0.0001277309056604281,0.8440670967102051,0.15579535067081451
10,13,0.8988181124066481,3.767624719853115,3.9107708948647417,-1.0,-1.0,-1.0
11,14,0.7947615322019029,8.76905282254153,7.0679255181220775,3.766863073906279e-06,0.9904390573501588,0.009556982666254044
12,15,0.7999360466645599,3.7820845801543417,3.243173873190449,3.348613608977757e-05,0.9558656215667723,0.044095393270254135
13,18,0.847679075445079,42.515742649027175,302.0280780648038,4.63105425296817e-06,0.9740835428237916,0.025909798219799995
14,21,0.8456744342020306,4.352583065503722,0.7223467688724191,0.0006067095673643053,0.7634034156799316,0.23589037358760834
15,23,6.378417636978178,68.34005949176532,4545.132492603075,0.0008136352989822626,0.780880331993103,0.2182655930519104
16,25,1.3846262169331591,4.3649355873562286,3.4529705956992687,0.0005866115679964423,0.4947806298732758,0.5046184659004211
17,28,2.1220504569344207,6.754686589899462,12.372171856531331,0.00041841765050776303,0.6503010392189026,0.3492573499679565
18,30,1.6643703025611118,60.66533485534955,393.94994535963104,1.893362968985457e-05,0.9045782089233398,0.09539804607629776
19,31,0.9297075092478896,3.246293782944913,4.92910725323114,0.3262887299060821,0.4034169614315033,0.2678331434726715
20,33,0.817940299095823,6.66348001196416,3.0265480239602907,4.324400833866093e-06,0.9875867366790771,0.012408843263983728
21,34,3.6337182047676366,31.180007917057342,185.17667779417224,1.2032536687911485e-05,0.9871174693107604,0.01287009846419096
22,35,2.3464735157527383,141.18389257467277,93.7553037802289,1.4980502101025197e-06,0.9919930696487428,0.008005237206816673
23,36,1.169823680563734,26.52477268116877,1.3719009413562275,1.1346402061462868e-05,0.9815210700035096,0.018466653302311897
24,39,4.282206445544439,69.6958387655383,1294.1047540669642,8.73807366588153e-05,0.932283103466034,0.06762420386075974
25,42,0.8287085668638305,6.317726661321963,21.85907248720676,9.43080522119999e-06,0.9736879467964172,0.026301247999072075
26,43,3.0481170876510224,59.58441534273972,3536.708112838509,6.551614933414385e-05,0.8939177393913269,0.10601108521223067
27,44,1.6684366893995373,3.5577987061669445,10.544564988107599,0.0005120630958117545,0.024602478370070457,0.9748809933662416
28,45,3.355446128875186,483.1815095475257,149828.3748793177,2.127372681570705e-05,0.9039390087127686,0.09603467583656312
29,46,0.8119549790144923,6.674430533402507,1.2306919771808704,7.668047146580648e-06,0.9368270635604858,0.06315970420837402
30,47,0.8662212378726527,3.9147557267688633,11.901758855680892,0.003137348219752312,0.8572649955749512,0.13950759172439575
31,48,4.3542628782807125,184.99234879627517,31068.5991822378,0.0013467485550791025,0.17815160751342773,0.820475161075592
32,49,0.8294192707966782,5.593558007788402,1.2067352920450851,0.0001236354000866413,0.7926955819129944,0.2071603387594223
33,50,0.8469858983392713,5.451677276329578,1.6293845705333558,3.5976092476630583e-05,0.8736112117767334,0.12634611129760742
34,51,0.8125653530106105,5.302621307295169,0.7094493770903054,1.2637565305340106e-06,0.977070689201355,0.02292727865278721
35,53,0.9117553492152908,3.2009478662508166,9.085517383807485,-1.0,-1.0,-1.0
36,54,0.6495659070610929,0.7347398441912413,0.4591745676069154,0.9999997615814208,8.6901060569744e-08,9.958278468502613e-08
37,55,3.2876146904471244,48.62087561503334,865.1952018169812,2.4445203052891884e-06,0.8601107001304626,0.13987848162651062
38,56,0.8127554016938857,8.206731510509016,1.8243403907867144,4.757541773869889e-06,0.9874742031097412,0.012520912103354931
39,58,1.4023608183199292,3.1165596188959817,8.544601746942314,0.9088822603225708,5.5133430578280234e-05,0.0007952501764521003
40,60,1.3386327457245295,4.3030868914638765,13.03965047263716,0.014123160392045975,0.30918672680854803,0.6757875680923462
41,62,0.7931373622083313,5.502122590322684,21.355194688762765,5.270405836199643e-06,0.972644567489624,0.027349328622221947
42,63,0.8730886018722209,4.627870763811068,0.8320312386721087,0.0004043959197588265,0.7831428050994873,0.2163977026939392
43,64,0.8681541011294129,6.1519851538477655,4.054006101201583,1.5933337635942735e-05,0.955504596233368,0.04447738081216812
44,65,0.8068613806294047,4.391757243629219,7.66877012438499,0.0009637302719056603,0.8811195492744446,0.1178399920463562
45,66,0.8503954417042513,3.5763570460132765,3.8720084022127206,0.0028169150464236736,0.8470138907432556,0.15009230375289914
46,67,0.8512530096925589,3.0475307051636267,5.283919732577319,0.33445945382118225,0.4861764013767242,0.17809616029262546
47,70,3.784517976691901,147.8998415429833,14631.433783573171,3.5321675113664237e-06,0.9726079106330872,0.027387356385588646
48,72,3.6523134199587584,27.536184920728587,733.9297443911763,0.004638143815100193,0.6795248985290527,0.3157329559326172
49,75,2.730470940113777,22.646564197018442,18.441842116965205,6.599977950827451e-06,0.9806953072547911,0.019297881051898003
50,77,0.8963977094703368,5.14878571855881,20.292142214095822,0.00012083576439181345,0.8763476014137268,0.1235233023762703
51,79,0.85578420264052,5.273019803775202,0.7518790426957631,0.00018158213060814887,0.8468338251113892,0.1529509574174881
52,80,1.7779912860240763,157.96109968157077,12454.245897897968,-1.0,-1.0,-1.0
53,81,2.636526274464091,87.68870708300932,4233.993313308379,8.088758818303177e-07,0.9741222262382508,0.025876477360725403
54,82,0.783403539910236,3.993105611765816,15.103134596388367,7.986956188688056e-05,0.8557623624801636,0.14413760602474213
55,83,1.6418251775609958,11.399574997304027,10.058192952380386,0.0001336047862423584,0.11297778785228728,0.886778712272644
56,84,0.8674861859001837,7.976503494554808,0.7872287453915964,0.0002722466306295246,0.9176734685897828,0.08204226195812225
57,85,0.8746313166618541,6.2223078141328205,1.330857489661946,0.0001087026612367481,0.9154869914054872,0.08440109342336655
58,86,5.00032853199329,34.454838584299736,1176.5663502896996,9.504330955678596e-05,0.7890045642852783,0.21088926494121552
59,88,5.006456941185286,267.59978929118915,42595.11274752175,2.1782625481137075e-05,0.966010808944702,0.03396429866552353
60,89,1.1994472724985756,414.2218693738637,25562.591945926644,4.281965811969712e-05,0.7504864931106567,0.2494639903306961
61,90,1.7556828598671461,6.410078252716263,5.667917415428617,9.336826867212267e-10,0.00017069348541554066,0.9998292922973632
62,91,1.160194202630982,6.9666006400883225,24.499079140390485,0.0002932093921117485,0.461681216955185,0.5380198955535889
63,92,1.3933669339514156,8.941940099851667,2.12351044801689,8.805109246168286e-05,0.7733879685401917,0.226517915725708
64,93,0.8545760971297716,8.2640996786881,11.950210331407561,5.383071038522758e-05,0.9470804929733276,0.05286432057619095
65,94,2.9503258796523237,10.110006591045476,14.876026646617394,0.00042437159572727984,0.7930752038955688,0.2064795345067978
66,95,0.8576555265704847,4.6717743216110135,18.94415917891395,0.0007340545998886228,0.8744955062866211,0.12473414093255995
67,96,6.159127071514621,25.73879146022719,539.6421290073047,2.1450819986057468e-05,0.04867932200431824,0.951298713684082
68,98,0.8399818434088147,6.869057592232133,2.1491000561515388,0.00024465980823151767,0.8417548537254333,0.15799540281295776
69,99,3.754380496839718,51.806877316549,1176.8888657766126,8.98893631529063e-05,0.9439796209335328,0.0559271015226841
