,event id,width,length,azwidth,p_spot,p_track,p_worm
0,1,0.8155248375529262,5.39924067657436,1.4575366890036463,1.2098101933588623e-06,0.9799884557724,0.02000974863767624
1,2,1.2857669970266603,3.773678868639295,1.6737893741563332,0.03590978682041168,0.11047325283288956,0.853398859500885
2,3,0.7608969295266775,5.6702677554491165,1.9954793319288562,7.269166871992636e-06,0.9690588116645812,0.030929589644074437
3,4,0.8097544967226304,5.319558390721395,1.2398498027880438,8.347121365659406e-06,0.9705764651298524,0.029413158074021336
4,5,4.087749288790901,228.87633924164902,36882.21955963754,1.2269806575204711e-06,0.9864495396614076,0.01354892924427986
5,7,2.467352603704228,6.235626538556618,6.255268116764832,5.209567888186939e-09,0.005064236931502819,0.9949357509613036
6,8,5.722058262495666,206.69979781424075,41370.685215259015,3.255454794626189e-10,0.00020867824787274003,0.9997913241386414
7,9,0.8571626605120028,137.8662861450329,1039.4698242429422,1.5826861272216775e-05,0.8989200592041016,0.10105672478675842
8,10,2.53863672564133,5.049876085286151,7.424086635206381,4.406565494718961e-06,0.3639003038406372,0.6360950469970703
9,11,0.8276316111113111,7.195857604864871,2.1812060940882967,2.288142241013702e-06,0.9916415214538574,0.008356242440640926
10,12,2.0586492376922307,3.734980240411136,4.263200501417445,0.03867072984576225,0.2863912880420685,0.6740012764930725
11,13,0.8523613497523406,5.760203877037327,18.399497706992012,4.949043614033144e-06,0.9363068342208862,0.06368725746870041
12,14,0.8124516272329795,6.386864162297866,1.174039205377968,1.7172297930301288e-06,0.9900819659233092,0.009915909729897976
13,15,2.9711621970037534,5.883235941823722,15.943243475337214,6.180193304317072e-05,0.9016517400741576,0.09828485548496246
14,16,0.8980789111107679,5.843255405239966,5.434409047791994,8.058605089900084e-06,0.9612993001937866,0.038691695779562
15,17,0.8335474903088015,4.059825567407085,1.3993968153861338,0.0001141059838118963,0.8530070781707764,0.14684246480464935
16,18,1.0133460293942091,51.976542393659535,20.62322729116376,0.04357752203941345,0.3578745424747467,0.5984323620796204
17,19,1.9815762756346849,297.2859403170945,16485.400660035408,3.2329226087313145e-05,0.9004139304161072,0.09955138713121414
18,20,0.9639538546900162,6.4889600467478665,1.0282258079421454,0.0006182342767715454,0.6290693879127502,0.3703003525733948
19,22,0.8689160480886745,8.354721887160492,2.636917183349113,6.62414413454826e-06,0.9841989278793336,0.01579434610903263
20,23,0.772162911503495,7.823235047125483,5.30971622643137,0.00013773930550087243,0.9471895694732666,0.05266951024532318
21,24,0.7643486522950331,5.784977138624113,2.3941868011577543,1.0658856126610772e-06,0.9928858876228333,0.007112820632755756
22,25,0.8514001706973842,6.955457015153924,2.532447162242119,1.2691245501628146e-05,0.9746315479278564,0.0253553856164217
23,26,0.7816745356068969,6.967132542229258,3.1839953754994577,3.035812028429064e-07,0.9984689354896544,0.001530749024823308
24,28,0.8526510928328327,5.5025784310007575,16.802403743674645,1.3109098517816165e-06,0.9765706658363342,0.02342749387025833
25,29,0.9151919605194652,7.2277980775127855,2.5190883787888803,0.0008937870152294637,0.8053632974624634,0.1937329918146133
26,31,0.8238521646867439,6.81615590986396,1.2475108244787814,1.0583831908661523e-06,0.9962638020515442,0.0037351537030190225
27,32,1.1304551706263144,5.111606016149407,9.71765450322619,0.011009354144334791,0.061400778591632836,0.9261346459388732
28,33,1.892877263137405,5.480869717409808,3.7814031635817305,0.0015194592997431755,0.026466015726327896,0.9719741344451904
29,34,1.0680029157590452,6.6429983067485,1.283313641448768,0.0006413665250875058,0.5572624206542969,0.44207602739334106
30,35,1.547894918369718,5.4305012922621225,2.4649733893758468,0.0009239118662662805,0.5758606195449829,0.42320382595062256
31,36,3.9106377540922894,39.71904307098947,392.22808755993225,1.6336629414581697e-05,0.9265364408493042,0.07344620674848558
32,37,0.8506978517906533,6.457463126935902,0.7772944741787553,7.488262781407684e-06,0.977758526802063,0.022233642637729645
33,38,0.7670957396403065,6.451740972205148,6.071301839627672,5.697048891306622e-06,0.9812281727790833,0.018765710294246674
34,43,0.8093357386157527,6.1610900360387015,0.8928004499605412,1.0468382242834197e-05,0.9526760578155518,0.047312606126070016
35,44,0.7942099493355972,7.151406993656432,10.391107384882512,3.4009847240668027e-06,0.9922703504562378,0.007726043928414583
36,45,2.022057734295614,5.339861864871083,4.364786844432112,0.00013694388326257467,0.05403263494372368,0.9458085894584656
37,46,0.8922933513761182,35.83488785487845,1.878179290045648,2.4967981516965665e-05,0.9354894757270812,0.06448053568601607
38,47,4.103267956981864,78.52718564598906,3688.011285356769,5.5401733334292675e-06,0.9665806293487548,0.033413372933864594
39,50,3.3347139332193683,371.24068022651,47861.171891335296,0.9999976158142092,7.752958026685519e-07,1.5502226915486972e-06
40,52,1.09693412103617,5.7549668643384,1.3600490736007804,0.00011211953096790239,0.8704981207847595,0.12938620150089264
41,53,3.1613175970439067,36.52178932114915,746.156736068157,5.954849621048197e-05,0.11984257400035858,0.8800908327102661
42,54,59.31494336834438,490.2606749162989,122096.5509412682,6.048951945558656e-06,0.9636759161949158,0.03631502762436867
43,55,1.059789061497027,4.958044405195046,3.2953953135891187,5.040344331064262e-05,0.8596783280372621,0.14026229083538055
44,56,2.6814323921738112,9.406777809709977,36.00577985901465,0.001797197270207107,0.020120995119214058,0.9780791401863098
45,57,0.9944036645678724,1.6504464732096549,1.1233602500475386,-1.0,-1.0,-1.0
46,58,0.8015209439521396,6.5502546311415175,0.6929910711522734,1.29397278669785e-06,0.9933183193206788,0.006680417805910111
47,60,2.1317032929730333,4.801155987525381,4.662190258266814,0.00011333074508002029,0.5810924172401428,0.41871991753578186
48,61,0.8258970459878948,7.357954195456225,15.607954857592564,5.987702024867757e-06,0.9898568391799928,0.010137036442756651
49,62,0.793402638102945,5.40463437160387,6.5725501634142125,8.139599572132283e-07,0.9917733073234558,0.008225484751164913
50,63,3.08117011640149,5.293233352834327,10.804334874144326,1.4790396562602835e-05,0.4614255726337433,0.5385594367980957
51,65,4.8328397505779215,85.08073898208265,4726.158036079433,0.00014757830649614334,0.02119112014770508,0.9780646562576294
52,66,1.2998323500320372,8.343224297902161,14.988358543686072,0.002616374753415585,0.7263370752334595,0.27100634574890137
53,67,0.8159711875564929,4.572001750707736,3.334937742249138,1.5873353049755685e-06,0.9850897789001464,0.014907983131706716
54,68,0.8395653969732803,5.51717636869151,5.6907063968323435,1.192449644804583e-06,0.961776614189148,0.03822183609008789
55,69,0.7782678907034475,6.7314045332734525,1.7994760730779282,2.8075776299374407e-06,0.9845653176307678,0.015431719832122324
56,70,0.8379054566639006,8.649460451603396,7.260035972739347,0.00016698215040378273,0.9027878642082214,0.09704212844371796
57,71,0.9047226552508598,6.393442986283183,5.826302860073135,2.0666609998443164e-05,0.9551006555557252,0.04487815499305725
58,72,4.260605213616517,192.7109103645604,23756.921316737997,0.0011146067408844829,0.8868460059165955,0.1118769571185112
59,73,0.8106355924618903,4.788566036889491,5.195379769607062,1.2028267519781366e-06,0.9834682941436768,0.016530150547623634
60,74,0.8235598272289099,4.4666973465570186,1.6764491128396646,1.1136216926388443e-05,0.9565343260765076,0.043451845645904534
61,76,0.738926263127708,4.219355553468189,2.3600500013420116,1.1278035344730595e-05,0.9445695877075196,0.05541466549038887
62,78,0.9068436151017726,6.705631913221412,0.9284460544700259,1.6647816664772108e-05,0.9511389732360841,0.04884221404790878
63,79,1.0289129934984629,7.000222103173552,2.94455176554217,0.0003818105324171484,0.7668262720108032,0.2327707558870316
64,80,4.261638679012749,5.977116193456697,34.97162154418817,3.753045575649594e-06,0.027975933626294136,0.9720202684402466
65,82,0.8252493769431436,6.491529317268286,15.069692539475794,1.6476216842420403e-05,0.9756238460540771,0.0243588425219059
66,84,0.8060107429255365,4.846918552234497,0.6936371083300867,1.783518314368848e-06,0.9697645902633668,0.03023198246955872
67,85,1.1980239192332531,8.534662280793441,10.261109497198547,0.001210027257911861,0.11944155395030975,0.8793474435806274
68,87,0.7842659305433063,3.8178196401921776,13.586135654357426,0.007836424745619297,0.04820368438959122,0.9439367055892944
69,88,4.032748081268444,5.675379940846766,23.314244945820214,-1.0,-1.0,-1.0
70,89,2.2336360567962874,225.9260774003253,24055.728022140785,4.636140147340484e-06,0.9540812969207764,0.04591261222958565
71,90,2.631786761236958,86.66302975045099,6994.83306763386,0.0001565169804962352,0.832630455493927,0.16719937324523926
72,91,3.6808266526059015,115.8940159931642,10039.929674430541,4.8292062274413177e-05,0.8814796209335327,0.11845099925994873
73,93,0.9138079654673392,4.926430123619685,0.9362094685960632,8.111067290883511e-05,0.8531065583229065,0.14680533111095428
74,94,0.7423427981263453,7.665104242620344,3.1595505180246493,1.6304818927892484e-05,0.9803046584129332,0.01967848278582096
75,95,0.8135268040537412,9.328364189018515,15.152122678442302,6.596443563466892e-05,0.97118878364563,0.028743665665388107
76,96,0.8672796755799851,3.6522747098154773,6.8811154872877625,0.0004121958918403834,0.8688052892684937,0.1307254135608673
77,98,0.8246339295581349,4.905391458884933,2.523543209727976,1.6018118458305255e-06,0.9683060646057128,0.03169165924191475
78,99,0.7867097417569313,4.937048275663869,1.059011736239683,1.4352119706018131e-06,0.9841348528862,0.015862565487623215
79,100,0.8291411213365979,6.976562903000227,9.575245299702553,8.432705726590939e-06,0.9635777473449708,0.03641345351934433
