,event id,width,length,azwidth,p_spot,p_track,p_worm
0,1,0.8285379163922219,1.1503945193936556,0.8123651904943354,0.9994033575057985,5.5244843679247424e-05,0.0003729700983967632
1,2,0.8722531687515439,1.1114099079211133,0.8581690777873046,0.9968840479850768,0.00011134670057799668,0.0005801796796731651
2,3,0.914544827663774,1.3323260535060242,1.259745598783561,0.999430239200592,2.599881918285973e-05,0.00020641948503907767
3,4,0.8301817720580971,1.4387424437372824,1.7143203489173622,0.9939324259757996,0.002148403320461512,0.003832365386188031
4,5,0.8302304204399572,0.8781219940712198,0.6892868623253214,0.9999542236328124,1.107367188524222e-05,3.387881224625744e-05
5,7,0.7988373067642982,1.1479532697757815,1.1688653872978498,0.9992952346801758,9.7594725957606e-05,0.0005781356012448668
6,8,0.935915205118972,1.2503585094992864,1.1794284489322084,0.999705970287323,4.870291377301328e-05,0.00018297003407496962
7,9,0.7768951750900474,0.985211171019598,0.6078862977591363,0.9998891353607178,1.663804323470685e-05,7.941079820739105e-05
8,10,0.9485963139965864,1.4147597954907212,1.9774836935853173,0.9983097314834596,0.00012402536231093114,0.0005016684299334884
9,11,0.9234336831717062,0.9470452042349814,0.8968177695365319,0.9998840093612672,1.322063326369971e-05,8.465340943075716e-05
10,12,0.9413425162230804,1.2734355527018444,0.9806194755347404,0.9998533725738524,9.656281690695323e-06,8.752862049732357e-05
11,13,0.8484185934955331,2.619075989137951,3.8162146204035774,0.8965059518814087,0.020855545997619632,0.0813429057598114
12,14,0.8499438714228028,1.5302832460876388,1.2258509750629183,0.9923197627067566,0.0009829991031438112,0.002528036944568157
13,15,0.8201111670404898,0.8590959977459584,0.6769821831617348,0.9999626874923706,7.250643648148981e-06,2.9967222872073762e-05
14,16,0.8144355925264746,0.8295881600278017,0.6636282663320543,0.999947190284729,9.77131276158616e-06,4.04032070946414e-05
15,17,0.9186764083909884,0.950346899885574,0.8644390863020114,0.9999784231185912,2.999787284352352e-06,1.6933894585235976e-05
16,18,1.3949537342317488,10.546019546001457,94.40191626545229,2.395216597506078e-06,0.0026646156329661608,0.9973301887512208
17,19,0.8010553761397127,1.401236443649904,0.7203448824191251,0.9867782592773438,0.0012824417790398002,0.011694412678480148
18,20,0.8462548629101275,1.4194919591487465,0.8355639151368315,0.9991474151611328,7.001910853432491e-05,0.0005275133298709989
19,21,0.8034806417367314,0.8852838012017612,0.7208048945925666,0.9999430179595948,1.47642158481176e-05,4.197814996587113e-05
20,22,0.8264147884120889,1.2924392471511177,1.5258288552311732,0.9999146461486816,1.430676547897747e-05,6.0084792494308203e-05
21,23,0.8225427880802789,2.0673337067326973,3.2418763008922147,0.7213841080665588,0.13467155396938324,0.1407092958688736
22,24,0.8612106583357273,1.079431423143731,0.8431727755221429,0.9998962879180908,1.7902275430969894e-05,8.270392572740093e-05
23,25,0.8395620822368103,1.5494554969701888,1.7356170457671278,0.9947103261947632,0.0005714540020562707,0.003436477854847908
24,26,0.8039767898428228,1.545942679200004,0.6596944171298067,0.9892829656600952,0.004246866330504417,0.005946377757936715
25,27,0.834342361042204,1.4121424604189399,0.8220521266126296,0.9978606104850768,0.0003471895179245621,0.001721131382510066
26,28,0.8799311155231385,1.1391084054859943,1.254528923980318,0.9997661709785458,3.40186343237292e-05,0.00016390056407544762
27,29,0.8318475674403606,2.2075897262044726,0.7461048845750671,0.9308576583862304,0.032082021236419685,0.03440741077065468
28,30,0.924791833030552,1.3960823019076616,1.905854543200828,0.998960256576538,5.278915341477841e-05,0.0003038333088625222
29,31,0.7778422049436127,0.8394725654017464,0.6667628744680891,0.999935269355774,1.1475223800516687e-05,5.293242065818049e-05
30,32,0.8523107791363486,1.4131210552726086,1.4376696422907238,0.9985874891281128,2.8870994356111627e-05,0.00013383988698478788
31,33,0.7861146000856087,1.6880435786200578,1.2469341335977018,0.988867461681366,0.0023668748326599602,0.008488202467560768
32,34,0.9193000925908008,1.2459610204225355,0.924801924408534,0.999190866947174,3.09217102767434e-05,0.000241463232669048
33,35,0.8318680245146733,0.8473906273154256,0.7180425414216755,0.9999287128448486,9.467273230256978e-06,5.8438232372282066e-05
34,36,0.8629693504358347,1.129642392331307,0.9853566046522236,0.9996399879455566,4.264788003638387e-05,0.00025080423802137375
35,37,0.8228286105245621,1.0865141047111673,1.009945792343152,0.9994957447052002,7.446749077644199e-05,0.00040714890928938985
36,38,1.0482177284229468,274.71562457914274,7278.272286701902,0.9950904846191406,4.760051524499431e-05,0.0003664173418655992
37,39,1.0646536708769958,1.3741853437833786,1.1382358028932675,0.9908711314201356,0.0009972953703254461,0.003911072853952646
38,40,0.826720583168309,1.264580333782256,1.3614586322151403,0.9993886947631836,6.833434599684551e-05,0.0004904033849015832
39,41,0.9095255524362428,2.234204134599732,0.9692498235488904,0.9540721774101256,0.004694304894655943,0.04094759002327919
40,42,0.8097089736806443,0.8587846707468624,0.6675441790969107,0.9999791383743286,3.94523294744431e-06,1.6833064364618622e-05
41,43,0.7998760850061507,2.214995493652765,1.108977841154055,0.5562270879745483,0.2959190011024475,0.1460476666688919
42,44,0.8077071011515116,0.8871833855349768,0.7697557279342555,0.9999756813049316,4.373277533886721e-06,1.947676901181694e-05
43,45,0.8597026896770291,0.889795874584229,0.7579643666347292,0.99990713596344,1.719973261060659e-05,7.473489677067846e-05
44,46,0.8278780459402314,1.4530620361462578,0.7547993169954762,0.9984476566314696,0.00021156696311663842,0.0012386399321258068
45,47,0.8403581939818786,1.0287095942512503,0.7656109617886661,0.999887228012085,1.843913014454301e-05,7.614949572598562e-05
46,48,0.8034339244520247,1.9493011750221847,3.797656754016393,0.8492770791053772,0.07401545345783234,0.07531708478927612
47,49,0.8480145456855691,1.4584188638844424,1.8280080351120955,0.9968885779380798,0.0005860508535988629,0.002280693035572768
48,50,0.8731235834294677,0.8852195378456528,0.7654095749851408,0.9999701976776124,4.171014552412089e-06,2.5129762434517033e-05
49,51,0.8236930849914642,4.054743496556646,13.97629939187384,2.443855919409544e-06,0.9785167574882508,0.021479349583387368
50,52,0.8623531620128804,0.8915269434188504,0.7843515268541879,0.9999418258666992,1.070413418347016e-05,4.436271046870388e-05
51,53,1.7604231637834469,7.164927834075866,45.487711941782415,2.1760476314738528e-14,8.642613735787563e-09,1.0
52,54,0.899608435025129,41.69198017602166,718.6972451187149,0.9999542236328124,1.5428764527314346e-05,3.035689769603777e-05
53,55,0.775949468305208,1.3996032599738333,1.3846198088017152,0.9914091229438782,0.002378580858930945,0.005958878435194492
54,56,0.8647389014798887,1.012619688196541,0.8858523809084061,0.9999151229858398,1.4327226381283252e-05,6.466905324487017e-05
55,57,0.9006766316096453,1.7083582355217404,0.9381767676536706,0.9931210875511168,0.0009580860496498644,0.0026293976698070765
56,58,0.8222459026196568,2.8104371690750587,2.2199557222567607,0.08182293176651001,0.5453609228134155,0.3711934387683869
57,59,0.8226851607951371,1.3202603929602257,0.8555064818335409,0.9962738752365112,0.0009881776059046388,0.002616862300783396
58,60,1.2112660293265851,2.1969762330113403,4.502250060171032,0.9938475489616394,0.0007510476280003786,0.004812472965568304
59,61,0.8132320587773806,2.3142293401970946,3.8698260195361422,0.8037569522857666,0.07665937393903732,0.1182703971862793
60,62,0.8448520341048771,304.43146270824553,12682.311883302029,0.998920202255249,0.00019487789541017264,0.0008271341794170437
61,63,0.8763812917087943,1.4815594370774925,1.0268818740370684,0.9929018616676332,0.001487242872826755,0.0050404989160597324
62,64,0.8215227174521866,1.0002763358148492,0.7641619006220381,0.9997904896736144,3.5466695408104e-05,0.0001615716319065541
63,65,4.391750757628402,10.343365243787288,21.614277064684025,1.1279863328106375e-11,1.8345357375437745e-06,0.9999982118606568
64,66,0.8510401013679515,1.0241333659125949,0.7278490404201525,0.9998286962509156,1.9704772057593804e-05,0.00013063312508165834
65,67,0.9040847786897586,1.649264229403157,2.0954464248632685,0.9929940104484558,0.0006681425147689879,0.004421561025083065
66,68,0.8256764475423491,0.9389590652425912,0.8721486457083139,0.9999159574508668,2.04967273020884e-05,6.226537516340613e-05
67,69,0.8565503277007377,0.9858852136597748,0.8592791569176864,0.9999442100524902,7.1125100475910585e-06,4.688565968535841e-05
68,70,0.9049355639713921,0.9301929424999692,0.8439430281907127,0.9996365308761596,6.356766243698075e-05,0.0002291452983627096
69,71,0.7914870061627752,0.8906477243606307,0.7449444674489136,0.9999542236328124,9.29316593101248e-06,3.6090608773520216e-05
70,72,0.8352056426896004,0.8834213203862108,0.7085856676713158,0.9999476671218872,1.318181512033334e-05,3.8536010833922774e-05
71,73,0.8619644981803388,1.274160509003451,1.622650847021522,0.9997729659080504,3.885550904669799e-05,0.0001782020990503952
72,74,21.654594629649342,377.72899563611327,74492.51981615408,0.908390462398529,0.01164704654365778,0.07932546734809875
73,75,0.7356458533798756,0.9446577411963046,0.8481718154941099,0.9999419450759888,8.70787971507525e-06,4.852994970860891e-05
74,76,0.823693184266904,1.0454842596228566,1.0742474519762253,0.9999402761459352,7.67066467233235e-06,4.4486139813670895e-05
75,77,1.077387447194305,151.56629518147685,2028.4020394283973,0.9979694485664368,0.00017264853522647172,0.0007467943360097706
76,78,0.8492855639007109,1.0582557516560462,1.0263875585695077,0.9999542236328124,1.0223594472336115e-05,3.447068957029842e-05
77,79,0.7894247593796495,1.526031927294564,2.1983655209881108,0.9869167804718018,0.00335376663133502,0.009422201663255692
78,80,2.543077253749149,336.3312713556758,121.70681928314087,0.231322318315506,0.30403295159339905,0.4636848568916321
79,81,0.9847845278400024,328.60553093555137,1340.651218091976,0.99994158744812,1.0404743989056442e-05,4.469158011488617e-05
80,82,1.3847473614789083,215.22539170973005,43614.37566151043,0.9736417531967164,6.0566908359760425e-05,0.0004229298501741141
81,83,0.9169859243990952,0.9431055593536574,0.889395806204188,0.9999727010726928,3.89777596865315e-06,2.2420399545808333e-05
82,84,1.4761293311526191,2.8967438541800536,4.766829004893173,0.21024684607982635,0.10475755482912064,0.6842451691627502
83,85,0.9432016282773932,89.02036917250182,7883.080226064811,0.9996417760849,2.2338121198117733e-05,0.000127023842651397
84,86,0.920351950121462,1.230639199428132,1.199770721388008,0.9996579885482788,3.715240382007323e-05,0.00018746625573839992
85,87,0.822286848525242,0.8687324358201907,0.6922639881001701,0.9999614953994752,5.833582235936774e-06,3.2258023566100746e-05
86,88,0.7920226137710601,1.012141046521788,0.7996857365354764,0.9999449253082277,1.0541753908910325e-05,4.2756240873131894e-05
87,89,0.8964086189010887,0.9980445164769716,0.9960894483001448,0.9999258518218994,1.087424698198447e-05,5.3527783165918656e-05
88,90,1.0041804692901055,1.0757125875147686,1.1490444436870821,0.9999343156814576,4.551870006253012e-06,3.506696521071717e-05
89,91,0.8765981685522698,1.0306152539014355,1.0352715853601218,0.9999791383743286,3.039912371605169e-06,1.4319714864541309e-05
90,92,0.8771616700863495,1.3851148366394763,1.5953197821956255,0.9996284246444702,2.9348126190598133e-05,0.000190491060493514
91,93,0.8860412552201012,1.0190561967068124,0.9796455169724126,0.9999650716781616,5.205384695727844e-06,2.5046945665962994e-05
92,94,0.881062380496244,1.060377568730072,1.0278452819236337,0.99976247549057,3.663976167445071e-05,0.000192229068488814
93,95,0.9876062178819396,1.151627634860101,1.3043384958610134,0.9998220801353456,7.924859346530868e-06,5.046168371336535e-05
94,96,0.8957496945290535,1.50678177231271,0.9409222475331578,0.9959533214569092,0.0006810150225646794,0.002558119595050812
95,97,0.7955102595151304,0.8911210209077683,0.7911980048809817,0.9999440908432008,1.0353891411796212e-05,4.534352046903224e-05
96,98,0.8591566441958469,0.9840005937486596,0.8232415440619465,0.9999210834503174,1.2113216143916361e-05,6.438427226385103e-05
97,99,0.8856801439802369,1.3327042320917968,0.7901784231138417,0.9994683861732484,7.893516885815188e-05,0.00036259132320992654
98,100,0.8358071003708986,1.8397166426819465,0.8281623199827702,0.8726927638053894,0.06413659453392029,0.061816323548555374
