,event id,width,length,azwidth,p_spot,p_track,p_worm
0,1,0.4441819955803234,12.866734159001856,24.762274993866853,0.009006795473396778,0.8378667831420898,0.15099094808101654
1,2,0.3674559414769653,5.4243495133614985,2.6753830502812552,0.04678766056895256,0.7485966682434082,0.2000574916601181
2,3,0.2578651182804685,4.140685717599143,1.8970866914483882,3.719163942150772e-05,0.9942184686660768,0.005627822130918503
3,5,0.5355340632078642,10.120435071416878,22.938657080851478,0.03992677852511406,0.2564511001110077,0.04946503788232803
4,6,0.2610879507523541,11.949345789916327,17.207980473811883,0.00886637344956398,0.713344156742096,0.2754630446434021
5,7,0.4719491046386896,9.731963389494886,6.485684468586668,0.014379902742803097,0.6971887946128845,0.2877204120159149
6,8,0.7931602427831596,8.926064173040613,7.496424102246821,0.4350067377090454,0.4506146013736725,0.11041158437728882
7,9,0.3334781625391867,2.7976092786776694,0.6934312199451076,0.0023458271753042928,0.17978525161743164,0.8177924752235413
8,10,0.22788183513082674,3.5949075991272306,0.679328961026903,0.0004585821006912738,0.4816994667053223,0.015022583305835726
9,12,0.5607264971705536,12.729151754201446,9.065061588841855,0.0006755864596925676,0.9615991115570068,0.021477598696947098
10,13,0.20858927136824165,10.036802618355356,7.5646551532073625,0.08175354450941086,0.019597548991441727,0.017633475363254547
11,14,0.3769325938169093,7.91781061519164,6.147719961116824,0.13037240505218506,0.4712908565998077,0.3958800435066223
12,15,0.6345810212998149,9.09427126253642,8.29176116247786,0.5985771417617798,0.3717186152935028,0.028362870216369632
13,16,0.18980759018126656,4.1182372053229965,2.2069596006142365,0.005728464107960464,0.8700744509696959,0.122760571539402
14,17,0.3430184320560253,0.550008915404736,0.12494302749946665,6.706657586619258e-05,0.9176256656646729,0.08191677182912828
15,18,0.3872852665914157,9.063309005949144,6.193346350247617,0.0002531680802349001,0.9456629157066344,0.025088261812925342
16,19,0.813851117197102,9.348945741848622,6.7790166857841285,0.023015230894088745,0.2517164647579193,0.09842485934495926
17,20,0.3570831829358908,12.50537480525422,6.702358089229988,0.0013549153227359054,0.8218827843666077,0.0939098596572876
18,21,0.6052126065366776,14.485334189563712,13.115596410079913,0.7380675673484802,0.04350294172763825,0.2180905044078827
19,22,0.7449127362105997,12.436362850959075,12.540626677297881,0.04960349947214127,0.6257050633430481,0.3163881003856659
20,23,0.8014324561498001,16.793427576931204,24.38881652573809,0.2831699252128601,0.4107377529144287,0.302723228931427
21,24,0.3401228918458969,11.573666313530602,13.332730053945106,0.0022449258249253035,0.2583603262901306,0.7390392422676086
22,25,3.001360956945092,22.56995425311009,9.059078558087307,0.08330869674682617,0.0201096273958683,0.8965715765953064
23,26,0.24436599922090715,11.966135443544292,14.654963066694641,0.0010358047438785434,0.8196094632148743,0.11833605915308
24,27,0.3997361300563978,5.077271438760135,1.8635476365055281,0.000666877254843712,0.007018633652478457,0.9923076629638672
25,28,0.41362144388018296,4.5723168354678565,1.8032725520432056,0.05437714606523514,0.754832923412323,0.0795956701040268
26,29,0.4408674953930216,10.121446014523082,9.865968848757863,0.05025171115994453,0.3810138404369354,0.5634400248527527
27,30,0.3679085884913573,4.4157966854926665,1.4407469620736737,0.00026276070275343955,0.9814055562019348,0.017976466566324234
28,31,0.6400010401521093,2.747763793418448,0.9792559424873056,0.01208414975553751,0.8606332540512085,0.12323056906461714
29,32,0.4917478134330782,14.562608987722282,21.594837347061482,0.0014422022504732013,0.8161832094192505,0.06380604207515718
30,33,0.4624428832342688,13.996432414681404,18.997363649071463,0.005897290073335171,0.12555067241191864,0.8649466633796692
31,34,0.2604134657524987,13.81924416267709,17.152147773384105,0.5467701554298401,0.35615774989128113,0.0962568148970604
32,35,0.5120968058230201,10.487312710090027,9.112221987748462,0.16983239352703094,0.6409652829170227,0.17352691292762756
33,36,0.3953428389955591,4.1295413377298615,2.0084504381793784,0.4442335069179535,0.2336706966161728,0.3212518990039825
34,37,0.3630407887385823,9.527298824310186,8.363094056387741,0.00021508167264983058,0.8073306083679199,0.1897021383047104
35,38,0.3902532155802793,7.726336296893718,5.8760927672458925,0.007700087036937475,0.9252026677131652,0.04521729052066803
36,39,0.19289096755422427,1.3925823246447209,0.3657814777965608,0.0008510693442076447,0.9336811900138856,0.06400159746408463
37,41,2.2055506427245666,7.4334959255822275,14.451364669971044,0.0009627081453800199,0.8881766200065613,0.06423357129096985
38,42,1.0128856637279855,8.218319493060545,9.159047418983643,0.09982234984636308,0.5442449450492859,0.07168948650360107
39,43,0.363756814890182,7.455266203613672,4.311317874248071,0.4833285510540009,0.19612793624401093,0.07573741674423218
40,44,0.3319290460526805,3.4323028542028644,1.100398373446361,0.006514051463454962,0.10532117635011673,0.8856866955757141
41,45,2.9213946530820447,8.851567332577678,24.91473098638821,0.006820138078182936,0.030349070206284526,0.9628192782402042
42,46,0.3843624577068308,2.179420788240809,0.6945477911150884,0.00011964159784838557,0.6572621464729309,0.015801867470145226
43,47,0.5662247763684751,7.136675274152021,4.8090557566226915,0.004326941445469856,0.3962469100952149,0.02824971824884415
44,48,0.4445602421170197,9.607377015896938,8.376585035495513,4.295696726330789e-06,0.002576515078544617,0.9974169731140136
45,49,0.30322963620200755,7.483150306668509,5.429947224478268,0.20993682742118835,0.6083448529243469,0.15242314338684082
46,50,0.6145072047540856,9.543731469740976,11.436154833206835,4.735888069262728e-05,0.8796919584274292,0.1194010078907013
47,51,0.5408363421732475,6.361966597971585,3.3408222383337582,0.00193362298887223,0.7180069088935852,0.24691395461559296
48,52,0.5602743387198788,4.099789022396552,1.9023731659823784,0.06047780811786652,0.6800298094749451,0.21093644201755524
49,53,0.3776645754815728,16.013667694172206,27.62650710792693,0.07007346302270889,0.295962929725647,0.6086509227752686
50,54,0.3071205787852204,10.419834237457062,9.511778472244798,0.005903824232518673,0.7861019372940063,0.17778244614601135
51,55,0.2130796175381013,15.07859258900545,14.722979962435222,0.0003802076971624047,0.9055273532867432,0.09305275976657867
52,56,0.5429265822089284,10.93638459848792,9.06488601687118,0.23829522728919986,0.6545513868331909,0.10121282935142516
53,57,0.20192129430256808,13.431652518676994,20.234253271427832,0.0006147450185380876,0.9725181460380554,0.02528434060513973
54,58,0.4566959565128561,5.116495683258965,3.4282757440087237,0.9181442260742188,0.05428211018443108,0.014135177247226238
55,59,0.4292681712555029,16.720309141401653,20.4223491580557,0.03678467497229576,0.5172683000564575,0.4456746280193329
56,60,0.5540459226474228,1.854755047139512,0.5258128852237124,0.02033030055463314,0.9174011945724488,0.061010651290416724
57,61,0.4262012803081056,15.366146591709946,23.069941747948388,0.00020206840417813507,0.9709367156028748,0.028531210497021675
58,62,0.3866886988474105,18.43743993374889,29.11756010933777,0.38922733068466187,0.2008993774652481,0.3008388876914978
59,63,0.40789481166054,10.940855227549898,10.742918183614245,0.0015894831158220768,0.8140366077423096,0.16975447535514832
60,64,0.12236771053248315,6.218375717706635,4.5729157719188365,0.0009168577962554992,0.9687939882278442,0.02982834912836552
61,65,0.4569144499554649,8.74911340729178,8.328525917811698,0.013815275393426418,0.6850392818450928,0.03842760622501373
62,66,0.6574548906790753,10.42155696289527,8.690977356910189,2.582263368822169e-05,0.9919486045837402,0.007350909989327192
63,67,0.3091297042432464,2.373353427579364,0.9481509961081634,0.3043103516101837,0.5212997198104858,0.09924338012933732
64,68,0.280446530023862,5.543148679436738,3.8985651056023847,0.9286843538284302,0.02275403775274754,0.048338565975427635
65,69,0.16980792409889855,5.77675685456002,3.3129639789089484,0.025236818939447403,0.733388364315033,0.2399003654718399
66,70,0.4835183486956509,4.171962951409822,1.6264857984375534,0.4490585625171661,0.41230893135070795,0.12800036370754242
67,71,0.4741058481857665,13.46952420423202,16.198017086161418,2.991184919665102e-05,0.9887658953666688,0.010564270429313185
68,72,0.14284218423106088,3.7300082229998655,2.043584305374021,0.006419038400053978,0.33127361536026,0.048933278769254684
69,73,0.6944689133600549,9.108341635068973,5.445949804054426,0.005859136115759611,0.878275990486145,0.1156502515077591
70,74,0.3762158274403447,10.224742392530516,9.523016453887848,0.002987093757838011,0.9697026610374452,0.026097450405359268
71,75,0.469084010958633,3.4057557722805214,1.2605733010684312,0.00038850586861372,0.95665180683136,0.031662359833717346
72,76,0.3576946604961368,13.251325654259064,11.794036603232884,0.0008054181816987692,0.15267103910446167,0.8464534878730774
73,77,0.13103068650303207,12.018228601163154,14.847935007779222,0.06630393862724304,0.17338410019874573,0.05635393783450127
74,78,0.4545900409312656,8.964498065445003,6.9072358331861645,1.9848423107760027e-05,0.9899314641952516,0.007885168306529522
75,79,0.5940594463681488,7.467151158296198,4.944283678860303,0.00010966863192152232,0.8746491074562073,0.01486399956047535
76,80,0.31609916590692433,10.311201377257893,10.425723338864392,0.017069172114133842,0.7145053148269653,0.03935118019580841
77,81,0.6135144641129856,6.314981826739137,3.9321889677558826,0.04999073594808578,0.6105732917785645,0.3384886682033539
78,82,0.4893918545650188,5.550879094141322,3.2587829802529615,0.0009413936058990656,0.7310276627540588,0.26737871766090393
79,83,0.32922884389907403,5.778785980572414,3.3910796209314533,0.005050703417509793,0.0704258382320404,0.924480438232422
80,84,0.5133151247302108,6.995494561263304,4.796206950046373,0.00016180076636373997,0.5197108983993529,0.4781188666820526
81,85,0.6939792643728667,12.77150535385565,15.60166061114096,2.125484024873004e-05,0.9724019169807434,0.010550632141530514
82,86,0.4163496377083668,6.261174642608048,3.9742545570271792,0.11835314333438872,0.10039377212524414,0.09661764651536944
83,87,0.28412829010224266,11.18020191839183,11.279613540003426,0.0034062755294144162,0.7628557085990906,0.2321988344192505
84,88,0.3425269616068989,10.030283126294405,11.53218852292818,0.0065718991681933394,0.3425419628620148,0.6498513221740723
85,89,0.22194543833001512,11.075947471536482,8.726359882691327,0.897049069404602,0.009180250577628613,0.011635693721473215
86,90,0.4764077382497064,14.070784016634805,18.82102813199668,0.8049039244651794,0.10343462973833084,0.031338177621364594
87,91,0.4409657520751871,3.3074376034713007,1.3308889475161396,0.004711314104497433,0.9224895238876344,0.05708279460668564
88,92,0.6578424546347621,5.9865348412260175,3.2995871652182327,0.031938500702381134,0.6413990259170532,0.19353888928890228
89,93,0.2382936400892949,9.296237601478907,9.665410768474693,3.1484367355005816e-05,0.9795504808425904,0.01368300337344408
90,94,0.10482979969160924,7.1625406375289895,4.693722983601083,0.000991377979516983,0.9459322094917296,0.046144191175699234
91,95,0.3931326218704396,11.172642254896216,10.617283345532664,0.0007576349889859557,0.8054802417755127,0.19271135330200195
92,96,0.2088687691292968,3.0390012753913256,0.9003830608046216,0.023493397980928414,0.5514523983001709,0.40301606059074396
93,97,0.6687466500982665,9.555389864714833,6.62162732550554,0.036841172724962234,0.7288261651992798,0.17966516315937042
94,98,0.4671911615418405,8.303459542970431,6.179344901971476,0.0007806420908309517,0.9771889448165894,0.018917998299002647
95,99,0.6836967572465926,2.9781160978672285,1.3136383953857174,0.0013601512182503939,0.96513032913208,0.02513737604022026
96,100,0.2919679230964137,4.934456197959469,2.4624480943079576,0.004112315364181995,0.5042840838432312,0.4909970760345459
