,event id,width,length,azwidth,p_spot,p_track,p_worm
0,1,0.45044154523914,6.154721577774044,2.3375201374136374,6.269822915783152e-05,0.9913346171379088,0.008412893861532211
1,2,0.5985651569458551,8.911187697357327,4.897571384204338,0.0005707614473067224,0.9558005332946776,0.043587978929281235
2,3,0.3150398855561597,5.3095922910059175,1.4435241877020986,1.676256397331599e-05,0.994902491569519,0.005002688616514206
3,4,0.4468694247722766,8.957710894434225,4.419684807417134,8.767371764406562e-05,0.9362335801124572,0.060397952795028687
4,5,7.629394531421285e-06,2.7889418239563306,0.11550759887143575,0.0012681677471846342,0.948303759098053,0.04298312589526177
5,6,0.6275295414727555,8.148032950825213,3.221864804487661,6.245174972718814e-06,0.778091311454773,0.2218200862407685
6,7,0.308117849651103,4.7175145712005255,1.224338228777198,0.0012149709509685636,0.9228175282478333,0.0747348740696907
7,9,0.4222752973499225,7.505606336132977,2.5555461812171067,0.9939810633659364,0.0038999393582344055,0.001379099441692233
8,10,0.3930910062014566,10.855430490573989,8.031726786205322,0.000639794219750911,0.7285169363021851,0.04568766057491303
9,11,0.5898493904271452,11.058142968457988,6.2067009131294295,0.0018233653390780087,0.8351117372512817,0.14895200729370114
10,12,0.6084229284402735,2.4931524283724102,1.366553401261419,0.033467113971710205,0.8317724466323853,0.13390566408634186
11,13,2.351631758781497,4.237241928690036,9.155643623646194,0.008138543926179409,0.8546407222747803,0.13585282862186432
12,14,0.525420116381108,9.269507881396427,4.95041650344764,3.538620876497589e-05,0.006112754810601473,0.9938515424728394
13,15,0.529671529642773,7.8539707706113235,2.9556352175737897,9.251594747183844e-05,0.9460158348083496,0.053745243698358536
14,16,0.6118222926658774,10.818693060716784,5.172235823736552,0.00015779274690430614,0.955028235912323,0.044772155582904816
15,17,1.5398226939508348,4.031652134277973,4.298427745710663,6.458066491177306e-05,0.9851171970367432,0.014811817556619644
16,18,0.8577050733857696,9.084023010298763,3.538392020434221,0.00025457103038206697,0.007127855438739061,0.9926161766052246
17,19,0.4663180720277806,11.016903309439538,6.092279583024237,0.0005367471021600069,0.023639876395463943,0.9758210778236388
18,20,0.4728000203274601,9.630426001596415,4.656863260928903,6.520197348436342e-05,0.9898775219917296,0.010028035379946232
19,22,0.26129839373456376,4.12614069825874,1.0350109677925887,0.000826738600153476,0.9522916674613952,0.046509817242622375
20,23,0.2713593287187004,0.9530766659297324,0.12663208381612784,0.006137540563941003,0.9456441402435304,0.039357811212539666
21,24,0.4215588123899955,6.809514942477184,1.3647741071423412,3.799418482230976e-05,0.9919958114624025,0.007414663210511208
22,25,0.5360965421737964,7.803731384749173,3.297956947025792,0.0010073884623125196,0.9771071076393129,0.019902057945728302
23,26,0.780993399134851,6.271245216426724,2.512393915068934,5.098281326354481e-05,0.9903345704078674,0.008313688449561596
24,27,0.4362324663566286,7.971553875714872,3.1728787074593585,9.889171224131132e-07,0.993190348148346,0.006798125803470612
25,28,0.6532815738037786,4.224752990289288,1.1991624695387242,5.692962076864205e-06,0.06181256100535393,0.938180923461914
26,29,0.2280706055866425,7.86372455749088,3.594339377942507,0.013066890649497507,0.8913565278053284,0.0955154150724411
27,30,0.39855147548885067,5.496604200472512,2.0384081594253547,9.256767157239664e-07,0.9987756609916688,0.0012178221950307488
28,31,0.40676928109322574,12.27628736120582,7.592243810465701,0.10134846717119217,0.7854820489883423,0.10685888677835463
29,32,0.3506485352764642,5.670237416521517,1.1488290717954346,0.0004826455842703581,0.9692749977111816,0.022125395014882088
30,33,0.09510527350776456,9.648247383336114,4.131010518589834,0.7036130428314209,0.2599954903125763,0.027303224429488186
31,34,0.3795422340728628,3.518066592339264,0.8570042416562473,4.345381057646591e-06,0.9961140155792236,0.003880255389958621
32,35,0.3957228723217453,1.348744867345772,0.2617475982443104,0.0022050305269658566,0.3111255764961243,0.08850190788507463
33,36,0.7675781357970152,7.380372134215711,3.668672476342039,1.839835022110492e-06,0.9967026114463806,0.003292043227702379
34,37,0.427013530123833,8.659052783763213,3.660039827577545,0.05992574244737625,0.84442538022995,0.09478555619716644
35,38,0.25362376969539924,8.900317285355994,4.242217868523939,0.046107921749353416,0.7323781251907349,0.22148561477661133
36,39,0.3429345497142385,9.957635129959947,5.582371909782354,0.0010153686162084339,0.8728979825973511,0.12585733830928802
37,40,0.4099611201723011,1.5701385065800424,0.3093988189944888,1.1887075743288733e-05,0.9946560859680176,0.005038813687860966
38,41,0.3581501951165068,9.236265335031387,4.032564756672133,0.8000419735908508,0.15811192989349365,0.0414959043264389
39,43,0.3153557591637871,2.6432871800271918,0.3418711981480447,0.033509571105241776,0.8939433693885803,0.07033023983240128
40,44,0.2512425399522641,7.4797483950237025,2.642619984981484,1.0036310413852332e-05,0.9949727058410645,0.0050136689096689216
41,45,0.7296084026750693,4.749953963705092,1.2326102675567745,0.0008188593783415854,0.8708919286727905,0.017076043412089348
42,46,0.5089743946506666,6.079756047880554,2.1743678352134608,1.2987905392947141e-05,0.9946267008781432,0.00533360755071044
43,47,0.6464022153184249,9.3039327991957,6.4210845300274,5.114154919283465e-05,0.9936454296112059,0.006116699427366257
44,48,0.21136829948715694,0.8791768456678041,0.15458392274379326,5.588220119534526e-06,0.9701809883117676,0.029805094003677368
45,49,0.8375378876369537,5.644461356151317,2.247250856244032,2.8563802061398742e-06,0.9833062291145324,0.016558656468987458
46,50,0.7950536441373763,8.036776623866771,4.458666359211903,2.417986308955733e-07,0.9771074056625366,0.02287938818335533
47,51,0.4206790229267852,4.4349689017825416,1.3177614754318925,0.49449515342712397,0.4635404348373413,0.03831151127815247
48,52,0.4531538624448902,2.063285251055544,0.4196376458927825,0.00023427595442626625,0.10779980570077896,0.8919631242752075
49,53,0.3110841207504124,8.254020081826283,3.7916731036984936,3.397222099010833e-05,0.017274733632802963,0.9826889038085938
50,54,0.34978058242713783,3.808255660409748,0.69837869021086,2.5152545276796445e-05,0.9662060737609864,0.031096313148736964
51,55,0.3981905123095453,4.530314676986729,1.459555996021749,9.085618512472138e-05,0.9937082529067992,0.00571860559284687
52,56,2.8623260665782686,221.44221114580776,3676.295931607373,0.11174413561820984,0.8132241368293762,0.07089918851852417
53,57,0.4052303412667835,7.546341617976844,2.409253577358281,0.0010922880610451102,0.9391177296638488,0.05943942815065384
54,59,0.28335173009482106,3.8345125561820463,0.8765393898091206,2.31708918363438e-06,0.9970935583114624,0.002829713048413396
55,60,0.4233188270704855,12.362623640603848,9.029113691775327,1.2020188478345515e-05,0.9725399017333984,0.027440838515758514
56,61,0.4499114364253015,5.421947610344329,1.3605310209043662,0.15474656224250793,0.702765166759491,0.13441751897335052
57,62,0.2525714147503545,2.3272369440521783,0.36332271717724746,0.002585545647889376,0.8253284096717834,0.04281628876924515
58,63,0.4111542127405475,9.591196538242858,5.189551520050816,0.00016780140867922455,0.9709120392799376,0.014520833268761638
59,64,0.4828687526726683,0.6255065853454779,0.28290979322887405,0.010836195200681686,0.939036786556244,0.04865773394703865
60,65,0.5409582150166684,8.360246569169188,3.926037753673756,2.9769615139230158e-05,0.9944636225700378,0.005505638662725687
61,66,0.06616716152880933,10.311847658301696,5.516786747351007,0.001756493467837572,0.9682695269584656,0.028950603678822517
62,67,0.6280143990992144,6.702564219160411,2.5456542732158307,5.407684056990547e-06,0.9927789568901062,0.007214617449790239
63,69,0.3051385392526412,8.70540432002699,3.9444139182680895,0.05028410628437996,0.8125121593475342,0.13143309950828552
64,70,0.41321635922234906,8.146545351880432,4.481951269094081,2.329197883454981e-07,0.9988837838172911,0.0011157235130667686
65,71,0.3995876530818903,11.091415626325047,5.526695069901182,0.00015026945038698614,0.987009346485138,0.012799620628356934
66,72,0.4211524887946598,4.012159958548146,0.8488771904572484,5.349032562662615e-06,0.9374645352363586,0.0625215545296669
67,73,0.539401408795383,7.165488823832147,3.2608774110932743,0.020740864798426628,0.2504706382751465,0.052654828876256936
68,74,0.4112249710969704,8.658175723773084,4.230615875997091,0.0006508224178105593,0.9756515622138976,0.023212434723973274
69,75,0.5793965992101068,4.423265367777588,1.29719303701659,0.017183683812618256,0.7541199922561646,0.2238185852766037
70,76,0.7925075232230514,9.500239385308095,5.124842701708125,1.1730564438039435e-05,0.9917171597480774,0.00826991070061922
71,77,0.5209395981065581,2.400741580470501,0.5003502304489501,0.002571924356743693,0.9124318957328796,0.08373456448316574
72,78,0.3742350326751132,5.858900461609267,2.434621644042975,3.953428858949337e-06,0.9970481991767884,0.0029405655805021524
73,79,0.0,2.382421531759704,0.3953150520314313,8.675979188410565e-06,0.9935044050216676,0.006438405252993107
74,80,0.4152471290943126,8.246843786551656,3.1766510109995783,9.971179679268973e-06,0.9855563044548036,0.014402803964912891
75,81,0.6744673927529956,3.9234253511404193,0.8375434885240739,0.04177117347717285,0.681148886680603,0.27695971727371216
76,82,0.6918678866580008,6.257924179579375,2.383465868579585,0.00016152569151017815,0.9738585352897644,0.02562378719449044
77,83,0.28867516377470503,5.959537024715091,1.6634649473758258,1.9558843632694334e-05,0.991934061050415,0.008042319677770138
78,84,0.3944288343850738,5.460228716750431,1.674348891267028,0.0059181214310228825,0.9630206227302552,0.028929684311151505
79,85,0.4826451261977117,7.543228701596794,3.9258832596395266,2.9585733500425707e-05,0.9698828458786012,0.029964879155159
80,86,0.5072994835291634,6.178057115263269,2.143487459181892,0.0012704646214842794,0.9519888758659364,0.04669652879238129
81,87,0.5796832908471893,14.57405446876147,4.266393076728146,0.00010171312169404699,0.7170752882957458,0.2827836573123932
82,88,0.7110669190862916,5.3832293725367535,2.08883060956667,0.007934981025755405,0.6006094813346863,0.3913601040840149
83,89,0.5441839147843355,10.898592452886549,6.405603461670117,5.185988266021013e-05,0.9634203314781188,0.034278225153684616
84,90,0.3854224528757624,1.60187823150967,0.1818697927913975,0.0007126358686946332,0.5026202201843262,0.4690215289592743
85,91,0.33348010389216365,12.433626021446473,6.388472072573358,4.7083754907362156e-05,0.9838877320289612,0.015919163823127747
86,92,0.3631952946436021,5.546641814714186,2.1360420597575933,0.6579381823539734,0.2712901532649994,0.07069887220859528
87,93,0.5859723132621688,5.5443151588675965,1.9594303585106363,0.00013255310477688909,0.6942588090896606,0.3048297166824341
88,94,0.4355434133534761,7.745810808888911,3.4218658199716474,0.0021997487638145685,0.93505597114563,0.04559198021888733
89,96,0.2701258042699093,7.097458485110757,2.356941760167917,0.00017658963042777032,0.9916519522666932,0.007671666331589222
90,97,0.5328913008214001,5.847929244083892,2.104295347349296,1.470882921239536e-06,0.9967169165611268,0.0032728854566812515
91,98,0.5691401174220507,4.948405762982288,1.5447594725243576,7.55284600018058e-06,0.995707869529724,0.0042786914855241776
92,99,0.5331931549161696,3.8458193381903567,1.158362843576493,0.0014576502144336698,0.7055842280387878,0.2922194004058838
93,100,0.6434500201522798,10.251169896479073,5.627970746327351,4.369669113657437e-05,0.9778130054473876,0.02137360163033009
