,event id,width,length,azwidth,p_spot,p_track,p_worm
0,1,0.1370626639072011,21.024469814952162,286.87820587951086,0.02004362642765045,0.650473415851593,0.11173448711633682
1,2,0.400518039545099,15.26937956588351,140.52411989925835,0.014730030670762062,0.8790378570556641,0.1020786315202713
2,3,0.4020802394022184,15.625448004766705,155.90819382344083,0.0007387298392131925,0.9200128316879272,0.06575412303209305
3,4,0.4798008331095998,9.002762444362364,48.11740154315298,0.023619268089532845,0.4617376923561096,0.5073359012603761
4,5,0.4974990728956197,6.251390753488223,25.75179311084611,0.0007792226970195768,0.8979334235191345,0.10026425123214723
5,6,0.3816525782022073,9.916302666250306,67.20056895397343,0.38909393548965454,0.477378636598587,0.04923947528004646
6,7,0.4790697527725748,13.005591656832118,103.26980875021805,0.07714319974184036,0.8612237572669983,0.05955057591199875
7,8,0.7061726102390156,13.218351355668965,105.87001581930453,0.1485653966665268,0.21254171431064608,0.6360927224159241
8,9,0.3800301214191077,7.559278069681718,32.917184288770784,0.011691627092659472,0.8157041072845459,0.16887739300727844
9,10,0.2698432386198302,11.424205967100727,81.53902004647473,0.0010415205033496024,0.9812793731689452,0.01757904700934887
10,11,0.4905888192119618,4.310598561317153,11.425359662930472,0.0062373019754886645,0.6770337224006653,0.30962836742401123
11,12,0.7760704445202798,15.468421259294901,157.08725443749626,0.0005389335565268993,0.9716577529907228,0.027400355786085132
12,13,0.33522781102844057,8.332622790575481,41.3728621344147,0.0001496852928539738,0.983128309249878,0.01644323393702507
13,16,0.3469539051417685,8.63643575394063,45.93371650762286,0.004125369247049093,0.7239426970481873,0.06103465706110001
14,17,0.4903983766854615,4.120184910056233,11.599741261034449,7.704210293013602e-05,0.9947320222854614,0.004850782919675112
15,18,0.7791490352006909,15.41030010040125,147.33058018939144,8.707866072654724e-05,0.9964281916618348,0.00342392036691308
16,19,0.4941693961022586,15.953348449918652,171.42581945440887,6.206524994922802e-05,0.9871779680252076,0.012646527960896492
17,20,0.6846605776006947,13.884271570974073,119.12712191245701,0.18481788039207456,0.036950163543224335,0.7780883908271791
18,21,0.4653088687242662,17.006562737515832,169.30092023241085,0.009795754216611384,0.7972000241279602,0.15534614026546478
19,22,0.3562581041025588,9.235052350895208,56.12206196975313,0.007657966110855341,0.11028029024600984,0.8819053769111633
20,23,0.40824216847816336,8.878732988685158,51.28114940318724,8.65033798618242e-05,0.9894743561744692,0.009994055144488813
21,24,0.7932473103758981,16.081220903485534,167.47552595141497,0.0003932604158762842,0.9887646436691284,0.010639683343470095
22,25,0.38295242155633263,17.339269669891873,173.45907632271096,0.0001576193462824449,0.9761855006217957,0.02286556176841259
23,26,1.0115878444005966,9.394695184872704,51.44926825381248,0.18803821504116056,0.01490090135484934,0.7970107197761536
24,27,0.4202953090123546,10.12198635052683,69.51277229570285,1.497383254900342e-05,0.9911623001098632,0.008576792664825916
25,28,4.427065421917347,47.70662500327681,2008.0398623945873,0.06674046814441681,0.13725140690803528,0.7957512140274048
26,29,0.4966791710907453,18.69622553971605,216.5713007651489,0.00027552954270504415,0.9781463742256165,0.02152646519243717
27,30,0.8706390198506497,11.376902616465854,84.53974672984809,0.0012244454119354484,0.9044856429100036,0.09367311000823976
28,31,0.4636770345360079,3.0725621394630407,6.50838211237499,0.004637132864445448,0.9323559403419496,0.061283692717552185
29,32,0.4108082699894257,11.184683536429644,83.27572717465351,0.0432063452899456,0.057741980999708176,0.8989162445068359
30,33,0.2780992900770093,10.283552297959636,62.3682467570996,0.03045402653515339,0.3482066094875336,0.6175872087478638
31,36,0.4847013865420679,12.370106792668636,95.88567996847117,0.2345911264419556,0.3841182589530945,0.3811463117599487
32,37,0.4833786618879756,20.27670381812235,275.6811215294042,0.002917475299909711,0.9674683809280396,0.027203775942325592
33,38,0.5111005303407621,9.266848578465424,47.861210122429334,0.0007893435540609063,0.9687122106552124,0.029183790087699887
34,39,0.5657332372017646,10.603769995240302,69.05442282389421,0.0006723328842781482,0.9739896059036256,0.024905137717723846
35,40,0.6725922595024058,10.693638123488638,79.74424752752714,6.207087426446378e-05,0.9750353097915648,0.02463843859732151
36,41,0.44606575528866943,13.207405474174633,108.60554327272249,0.014092137105762959,0.8041995763778687,0.16988934576511386
37,42,0.5463271749035993,17.651144209329367,200.14751415509983,0.0005541665013879538,0.9489921927452089,0.04918824508786202
38,43,0.4983736747023801,13.738970983686025,119.26391966105408,0.015504882670938969,0.4721902906894684,0.509915292263031
39,45,1.77852770408099,10.992157368110867,106.34427458575172,0.008329063653945923,0.222079798579216,0.7694424986839294
40,46,0.7573942450796469,21.039437787546657,287.49313646237124,0.004738007206469774,0.8517310619354248,0.1344798356294632
41,47,0.3966173250138309,7.2514047570146,31.80647627651545,0.19934363663196564,0.3236188888549805,0.4659664630889893
42,49,0.6202430819857018,11.047777228660983,79.0667423156638,0.11367826163768767,0.7956408858299255,0.08771238476037979
43,50,0.5041870127259954,5.860821358094878,21.27277352865444,4.09123504141462e-06,0.9980461597442628,0.001937309862114489
44,51,0.4503590307526592,4.361940273715478,10.900175262571036,6.752143804078514e-07,0.0002530271594878286,0.9997455477714542
45,52,0.6154643273685481,9.337383324931276,64.9215433327442,0.0016908410470932722,0.02345442771911621,0.9748463034629822
46,53,0.5551596949321141,12.348252276936533,105.21639302930365,0.004714033100754023,0.6954917311668396,0.2995339035987854
47,54,0.5752770420664897,8.66687352112009,49.228658452429855,0.000405979051720351,0.991616189479828,0.007602694444358349
48,55,2.3083341971796685,11.22008507016397,97.18865106417064,0.009871119633316994,0.2474855780601501,0.7407030463218689
49,57,2.1910507286496417,17.50452546767784,271.7185434020626,3.762072810786776e-05,0.9912319779396056,0.008626044727861881
50,58,0.6658410118637218,19.41107583838036,247.08197804781082,0.00029708686633966863,0.983119785785675,0.016539838165044785
51,59,0.4309367650648193,9.493464085004248,58.66302489632023,0.044678758829832084,0.6168071031570435,0.33273544907569885
52,60,0.5680604456539828,21.960388102968807,306.6958999180935,0.0022091655991971493,0.9661831855773926,0.030926041305065155
53,61,0.5244228583349528,7.221719702171054,32.92846882156833,0.0037510960828512907,0.8288034200668335,0.16442057490348816
54,62,0.9908900022387132,8.870872643876721,53.64007189145462,0.5263254642486572,0.00851875077933073,0.46509134769439703
55,64,0.5327829513078088,7.738273912244552,39.54111200756204,0.0039450181648135185,0.9593030214309692,0.036372389644384384
56,65,0.26179638276687683,16.793636206582352,160.0749196116759,0.999980092048645,4.2913161450997e-06,1.5573268683510832e-05
57,66,0.4652881518813941,18.550359491070505,239.98235906554612,0.21978215873241425,0.2930288314819336,0.4848141372203827
58,67,0.4364990363298693,20.120619386488034,266.2016410831744,0.007348768878728151,0.7386345863342285,0.2531434297561645
59,68,0.5968139972743229,9.860782856614836,59.42907905908152,0.9861969351768494,0.002529756398871541,0.011199966073036194
60,69,0.3511776031783478,17.726410041878,218.4651970912443,0.00011124226148240268,0.9674155116081238,0.03240545839071274
61,70,0.1878151852481927,12.781480254343538,103.92180554157105,6.088622467359527e-05,0.004119850695133209,0.9958166480064392
62,71,0.6488010330325579,15.591564630218627,154.5695073797811,0.08069691807031631,0.8191804885864258,0.07752465456724167
63,72,0.4290738464332017,14.84709952322469,135.73592903050852,0.00017211321392096582,0.8959971070289612,0.10368774831295012
64,73,1.234451755054552,16.483782667702275,191.63220428380177,0.044278521090745926,0.9216672778129578,0.031500205397605896
65,74,0.4949975678145812,15.500274195343756,148.95459307033994,0.2663644850254059,0.4524503648281098,0.27122125029563904
66,75,0.34065816665626786,9.081783594774313,52.69276526161188,6.295383354881778e-05,0.9926279187202454,0.007203403860330582
67,76,0.4425291045254614,19.188835234453038,241.29307559956825,8.260425966000184e-05,0.945633053779602,0.05410640314221382
68,77,0.7035851344234194,10.179279896132323,68.08335755837969,0.00014250044478103518,0.988730013370514,0.01045258529484272
69,78,0.6745886232117497,15.088816436960347,149.14828334142325,0.008556912653148174,0.9146451950073242,0.07627764344215393
70,79,0.8451572410280547,5.310488010135145,17.84774469421216,0.11142440140247344,0.5255373120307922,0.3600293695926666
71,80,0.38582661468294416,10.532177525060439,74.55369421283916,0.09556674212217332,0.7758405804634094,0.12744943797588348
72,81,0.3760969210401238,16.89397550675665,190.83781795439168,0.003352800151333213,0.10947122424840927,0.8870081305503845
73,82,0.2516865696617093,14.959536206134146,141.40658787331566,0.13412106037139893,0.52470862865448,0.2340209037065506
74,83,0.5093326528747265,13.542340500338467,119.09324174140731,0.21507351100444794,0.6299034357070923,0.15401241183280945
75,84,0.5645129745138155,11.782186034812458,86.28760972318453,0.0029165709856897593,0.9590961933135986,0.035757143050432205
76,85,0.34840571468583964,3.89220967301918,9.392479269488662,0.0015764909330755472,0.1320067197084427,0.8661506772041321
77,86,0.5136108539443317,12.689084309178664,100.87400137436842,0.3272339701652527,0.2113357782363892,0.458149790763855
78,87,0.4846261276621208,5.593301443147183,21.1015892811138,0.00032080840901471674,0.02056452259421349,0.9791105389595032
79,88,0.5337194752247953,11.279361083019593,83.48866253658215,0.000515510735567659,0.8056204319000244,0.1909894198179245
80,89,0.3672559532708537,3.6622031069450935,9.611281274670123,0.7813366055488586,0.10419609397649764,0.04854830726981163
81,90,0.40865979397162,16.876345293994426,192.6625826487476,0.0005583553574979304,0.9823447465896606,0.016787035390734673
82,91,1.0789593218788871e-05,8.100748130152995,42.75175256893107,0.000202853509108536,0.965551733970642,0.03405854478478432
83,92,0.381055170980229,12.578334219130044,101.83512131383604,0.0011187841882929208,0.8024898171424866,0.19466592371463776
84,93,0.3818592223300542,18.22544546367578,208.75470248075783,0.007420406211167573,0.9592980742454528,0.032829649746418
85,94,1.52587890625e-05,5.677645242289617,21.041337359699927,0.1957743763923645,0.5822051167488098,0.22160924971103668
86,95,0.5660170189276756,11.300929028168795,70.36589026072012,0.0002957070828415453,0.9490530490875244,0.05005956068634987
87,96,0.4733924792586948,12.757713364134656,95.9532526096498,0.07942941039800644,0.5802953243255615,0.33726659417152405
88,97,2.417573246093151,4.627928447808895,18.928408143662484,0.01839239336550236,0.8656786680221558,0.11555392295122148
89,99,0.4753763422114369,2.5256754030206694,3.9723192288719904,0.007453404366970062,0.9519758820533752,0.03859648481011392
90,100,0.4794247983128471,8.380052821421447,44.55556517079373,0.0016735619865357876,0.9484983682632446,0.049503836780786514
