,event id,width,length,azwidth,p_spot,p_track,p_worm
0,1,0.4920416984909727,9.271009680865868,31.767991772484823,0.0701899603009224,0.7945923209190369,0.12808845937252045
1,2,0.6865825110589904,1.9118687675046941,1.7068648724578273,0.014627734199166296,0.027841569855809208,0.9573165774345398
2,3,0.27554820911243066,4.7192038314611935,8.220511017239138,0.016301743686199188,0.6651447415351868,0.3138554692268372
3,4,0.5261092303800511,2.390558817593961,2.244162771930366,0.003451165044680237,0.8784677386283875,0.11537078022956848
4,5,0.4568107190987613,8.63019113373186,27.27273646055664,0.013351201079785824,0.400439202785492,0.5482314825057983
5,7,0.5282011869556692,8.101887904900881,22.04476805763053,0.07120029628276825,0.10237231850624083,0.0910656750202179
6,8,0.2626375153591629,10.62043676557004,40.93477259819587,0.013198452070355415,0.3161292374134064,0.6397821307182312
7,9,0.5873920667892977,10.213807851459382,36.30822347571638,0.2435594946146012,0.5736410617828369,0.14795686304569244
8,10,0.7709562318339827,8.56372673778228,27.43647189352188,0.0020541870035231113,0.9229493141174316,0.07380031794309616
9,11,0.7710342214510564,8.377490647245809,27.943398907366706,0.010081911459565164,0.03641728311777115,0.9528018832206726
10,12,0.3036091986907922,7.023123447402247,17.236577627213492,3.1223818950820714e-05,0.00883642490953207,0.9911221265792848
11,14,0.5580165296034489,9.576860250836038,32.495345661651356,0.02267197892069817,0.392479419708252,0.1851009726524353
12,15,0.6667000572216188,5.736555555414256,11.069839907817359,0.005621651187539101,0.8695873022079468,0.09998272359371184
13,16,0.4887768472278901,7.565152003193152,20.7850046306679,0.00833701528608799,0.12954360246658325,0.8596314787864685
14,18,0.7453894773632019,6.280605288916124,15.017383590744304,0.0022412643302232027,0.1414707750082016,0.8562129139900208
15,19,0.4231271077794869,9.838699602195486,36.03206054482008,0.006665965542197228,0.08111562579870224,0.90667462348938
16,20,1.8881861976655447,4.542488950607763,16.422582419233336,0.03741384670138359,0.8575785756111145,0.09313211590051652
17,21,0.27277870124047265,3.008706002491473,3.6382507850017634,0.002405113540589809,0.1192336231470108,0.8780843019485474
18,22,0.4550913540914243,7.1940762580225455,19.597644363188195,0.0024010762572288518,0.042823810130357735,0.9243692755699158
19,23,0.3876695209478144,6.9949722608483365,17.065128483371932,3.357276727911085e-05,0.021407745778560642,0.9785578846931458
20,24,0.6804274492271465,8.44897469058172,27.066847011957393,0.006044028326869011,0.8145770430564879,0.17241761088371274
21,25,0.4761663384726488,1.4706590801400292,1.0579082387787555,0.0021698677446693178,0.7153316140174866,0.2511553168296814
22,26,0.8568234933637007,5.7898009989822805,12.51041228191077,0.02190365456044674,0.35328209400177,0.4283040165901184
23,27,0.9252615354802398,4.509423752179524,7.305629353465861,0.001907866797409952,0.09106925129890442,0.9068095088005066
24,29,0.4862114290748053,15.704222387776802,90.68402191696724,0.10476855933666228,0.3386393189430237,0.5265042185783386
25,32,0.666598355055362,10.115689650270447,38.54836430499415,0.14407746493816376,0.009420707821846008,0.8464935421943665
26,33,0.4986476007979472,9.032058477183588,31.747359227420567,0.01657780446112156,0.003751823445782066,0.97966068983078
27,34,0.27868983736998365,1.0639683503500998,0.4758993072609541,0.4326384365558624,0.4449540376663208,0.11085706949234007
28,38,2.3245373808628447,5.8091726303103135,9.443590512520958,0.39291036128997797,0.3806558549404144,0.0814305990934372
29,39,0.3500409843325514,2.576706109205906,2.6533059712905387,0.2291283905506134,0.6570984721183777,0.1105155348777771
30,40,0.5638155186741728,6.752623453428205,17.04102746620958,0.9978010058403016,0.0004112521419301629,0.0004415563889779152
31,41,0.3291823322344062,10.516713374115394,43.537321158308366,0.047489702701568604,0.17132046818733215,0.7733702659606934
32,42,0.3195365915753673,0.4012808422432522,0.14997731323456145,0.08717332780361177,0.2514399588108063,0.6396867632865906
33,43,0.4647754472472989,10.791690390614637,39.908054244274375,0.776463508605957,0.13279250264167786,0.08913479000329971
34,44,0.4820895789051124,1.7666935412142302,1.3747778687752836,0.0033444606233388186,0.8313643932342529,0.0963977724313736
35,46,0.4991710114797627,14.117932284441984,74.14929368327677,0.12128151208162308,0.1074942871928215,0.0901697427034378
36,47,0.4271990196265101,9.465222724300734,31.90240126516593,0.5115386247634888,0.006699423771351576,0.018775306642055508
37,48,0.4875420297965904,7.0593946666944465,17.797330203938895,0.00012484827311709523,0.005817337427288294,0.994041621685028
38,49,0.31155808306621185,12.365205029741867,52.71744549654839,0.008743567392230034,0.8585277199745178,0.11338325589895247
39,51,0.5386382878288992,4.907131084834238,8.600997261628054,0.003503787564113736,0.6490123271942139,0.33736395835876465
40,52,0.5948316161007066,4.838906401874042,8.373443956736335,0.6186971664428711,0.25512319803237915,0.11869383603334427
41,53,0.2979166445152488,3.5921053640275766,4.957941156456548,0.9967004656791688,0.0009666309342719617,0.002315738704055548
42,54,0.3140887165186053,8.500270050289723,26.62539213141241,0.2126518189907074,0.18605293333530426,0.3089514672756195
43,55,0.6257410371495942,6.692585376477661,15.997199159957898,0.06992986053228377,0.3476368486881256,0.5810554623603821
44,57,0.5848817374016163,11.025211416222039,44.06781587379663,0.02246020920574665,0.7905741333961487,0.16276498138904572
45,58,0.8375341711676697,9.375063128938633,37.39071513259192,0.9617137908935548,0.0038544950075447572,0.007262408267706633
46,59,2.6428997918174505e-05,8.901634881836749,27.7247013536424,0.11902818828821182,0.6898570060729979,0.1761058270931244
47,60,0.5441633537090164,6.885933718392392,16.171549390839544,0.0005757846520282327,0.9225321412086488,0.07545814663171768
48,61,0.7315619233821862,4.781314842074403,8.848479126674627,0.04433917626738548,0.3075798451900482,0.2443576455116272
49,62,0.6879626041545164,0.8419854023276901,0.593847941723462,0.0019242357229813933,0.8991398811340332,0.09588686376810074
50,63,0.4945146700770707,10.140551608404712,34.65959987568563,0.00031540359486825764,0.8606684803962708,0.1387687772512436
51,64,0.4762569065815848,2.8232692536337303,2.9370059186967117,0.0012576744193211198,0.13957025110721588,0.8525826334953308
52,65,0.4610831738935736,13.218098803746884,66.88221300335036,0.002828932600095868,0.1625017672777176,0.06880012899637222
53,66,0.4818181713280824,3.604330606747857,4.637068786777048,0.10451670736074448,0.25071996450424194,0.4081806540489197
54,67,0.3931924905205794,5.88345486824439,12.612104480975347,0.05928028747439385,0.6835355758666992,0.22293123602867126
55,68,0.6016799214210395,5.343502347983149,11.5954390816956,0.004146694671362639,0.007478015031665565,0.006060930900275707
56,69,0.4285084471912059,0.7029048248760758,0.3001950741085297,0.002034079981967807,0.29950180649757385,0.6848329901695251
57,70,0.5307283087384559,5.308436062811781,10.703170329083381,0.004770762287080288,0.08623533695936203,0.9085127711296082
58,73,0.8550793024680564,4.80342599659632,9.014944363890224,0.2687714099884033,0.4891828298568726,0.14540521800518036
59,74,0.29847218560474764,8.8516840984295,27.643890329917326,0.0015112761175259948,0.6961101889610289,0.2860381901264191
60,75,0.900910325708765,5.519179242376442,10.698586822894297,1.193922435049899e-05,0.007822605781257153,0.9921635389328004
61,77,0.5026668376959915,2.0855770550249595,1.7318359148460944,0.35367274284362793,0.03663920611143112,0.6057635545730591
62,78,0.4491387620469161,5.03964749456817,8.428057626688355,0.046351708471775055,0.32023826241493225,0.34860020875930786
63,79,0.3909639699641825,7.842286182752348,24.888160011857448,0.6754042506217957,0.17770496010780334,0.1462651789188385
64,80,0.4975661063094801,4.802666070878486,8.694723713194762,0.13124051690101626,0.5053518414497375,0.2762663662433624
65,81,0.5333648590379301,6.721795483842341,17.323964106968305,0.00016274162044283003,0.9383878111839294,0.04606426507234573
66,83,0.3618252280596702,12.594062588692925,64.56836086793467,0.000989719876088202,0.6305957436561584,0.3611558079719544
67,84,0.4931893441535579,4.69463144501277,7.891453523795072,0.00485378410667181,0.6693509817123413,0.3251970708370209
68,85,0.4649050833807419,0.7035920625930647,0.38841937350533456,0.04519767314195633,0.05242130532860756,0.04233339801430702
69,86,1.5258789055353473e-05,0.4985601140340567,0.09210024736679112,0.006845573429018259,0.26896411180496216,0.7207936644554138
70,87,0.4700882790641408,5.979139599325197,13.079282415962293,0.044352736324071884,0.20455771684646606,0.13507935404777527
71,88,0.4111827571237682,8.480426415553369,25.911663492058683,0.8465256690979004,0.008171919733285904,0.013120432384312151
72,89,0.2976506312012492,5.865463967199812,12.232230325986814,0.6727029085159302,0.02452537603676319,0.3024078607559204
73,91,0.46959489791596004,10.829827278781636,43.27025101273673,0.0032006530091166496,0.7416306734085083,0.25265780091285706
74,92,0.4467688664328702,7.99772271441923,25.2474945831642,0.002460898831486702,0.05676920339465141,0.9407576322555542
75,94,0.4897933844474912,10.290226116497886,37.988709445373296,0.04664710909128189,0.6650342345237732,0.2863576710224152
76,95,0.4834972512291484,4.7938371554839625,8.567915381175679,0.07183796912431717,0.2294489145278931,0.6879861354827881
77,96,0.3450459301634621,3.580148682342996,4.8173695355051525,0.025992553681135167,0.5722014307975769,0.2867808938026428
78,97,0.5875447961169955,12.7043092755265,61.79762327775954,0.039492134004831314,0.5070223212242126,0.2582959234714508
79,98,0.4943508434669564,3.4929574742041005,4.79045244861341,0.0029135916847735643,0.38623011112213135,0.27841657400131226
80,99,0.2691695091631047,11.581429160591862,51.72935926649011,0.0006714282208122313,0.7764201760292053,0.21329839527606964
81,100,0.4797457123635176,9.302901968462482,30.8585481980465,0.038661036640405655,0.7647687196731567,0.08843566477298738
