,event id,width,length,azwidth,p_spot,p_track,p_worm
0,1,0.6349371213669098,2.8616501780072032,1.0575873686942323,0.00045591237721964717,0.9381553530693054,0.0611446164548397
1,2,0.3485248381678454,2.3360122176492197,0.5859513079518747,0.0017810736317187548,0.4569544494152069,0.5409782528877258
2,3,0.169925693004871,4.204932561864343,1.6780340578492188,0.09355795383453368,0.5583217144012451,0.3464062511920929
3,4,0.5104477089519287,4.671185814671293,1.994902319457608,0.004068585578352213,0.8557888269424438,0.13853466510772705
4,5,0.7699081346479211,6.341857916229126,3.646473205709404,2.497516504718078e-07,0.0011407342972233894,0.9988590478897096
5,6,0.8146387683101352,4.782449548051048,1.9406043318456998,3.8583493733312935e-05,0.017959436401724815,0.982001543045044
6,7,0.3727149637166452,2.849875223719496,0.8673643670679223,0.0013414624845609069,0.9138785004615784,0.08002500236034392
7,8,0.4661919635520426,5.347562553657172,2.5715938361370285,0.00034756722743622964,0.26524609327316284,0.7343176007270813
8,9,0.3000553714588318,0.8840169683929884,0.15145791844957046,0.047442659735679626,0.7333445549011229,0.2178235650062561
9,10,0.4020560981360121,3.7137888091697584,1.173748785570083,0.0026006693951785564,0.7864119410514832,0.20934319496154785
10,11,0.16722651585579498,7.9760082165645825,5.46092097104797,0.1265442669391632,0.15624947845935822,0.2265963852405548
11,12,0.44387453505044777,5.289598593481727,2.8360442769783014,0.00012307072756811976,0.8688183426856995,0.1305430382490158
12,13,0.19903903655974686,2.366473803272893,0.4391486745352637,0.04358503222465515,0.8158465027809143,0.13144084811210632
13,14,0.33813852646275794,5.4201133868576505,2.6917956660129234,0.07004649937152863,0.3387471437454224,0.5894025564193726
14,16,0.5591307801493841,4.645858693904371,2.2071012166896207,0.40579754114151,0.4310508370399475,0.09907922148704527
15,17,0.5864746360695324,4.783848801767877,2.0626621224639656,0.0006307479925453662,0.7610777616500854,0.2378957271575928
16,18,0.3559244628271083,2.877117233340901,0.9061374206820731,0.010846505872905254,0.4219587743282318,0.5599019527435303
17,20,0.4651661914609162,4.398660964404047,1.7744788923847068,0.0005493129719980061,0.8836788535118103,0.08917862921953201
18,21,0.6992932084741323,5.698744862995117,2.734242501177359,0.04907044395804405,0.3710711300373077,0.09272737801074983
19,22,0.5532637771402713,6.742316614083568,4.007067181810584,0.0023798092734068628,0.7424032688140869,0.2541692852973938
20,23,0.17767968432055845,5.011682482053832,2.049400664383171,0.001824757200665772,0.1833430826663971,0.8144627809524536
21,24,0.3544914424997682,5.0781962024316645,2.5285730181787374,0.0003154118603561073,0.6977483630180359,0.30156409740448
22,26,0.4716251599216965,6.3124220316082935,3.5578169528205668,0.037349868565797806,0.6436704993247986,0.20055823028087616
23,27,0.3891094767741263,3.47002253692563,1.2962082620737785,0.0006822466384619472,0.5970238447189331,0.3457695245742798
24,28,0.567828533815061,6.487267921783773,4.2605199106435645,0.011127451434731485,0.5970293283462524,0.13253062963485718
25,29,0.4758660105696676,4.493747276683575,1.9804214885643845,7.476729933841852e-06,0.14716413617134094,0.852820098400116
26,30,0.303223904285688,0.7798406690445745,0.09833997635643013,0.0038910114672034975,0.7783738374710083,0.12663647532463074
27,31,0.4557548548065577,6.639569288923327,4.51268306949462,0.0004197226953692733,0.6409169435501099,0.35788893699646
28,32,0.6394051124213364,3.622670168975266,1.4939729802804054,0.001415712758898735,0.8154941201210022,0.1822427660226822
29,33,0.6164184229873465,4.498485309850992,1.9006901596514767,0.3074474930763245,0.3877586722373961,0.2575192153453827
30,34,0.3766381500640803,1.0502424029633424,0.3076334663743673,0.00039539625868201256,0.2045617550611496,0.7930858731269836
31,35,0.43005572391678987,3.937938973444754,1.5564731134112533,0.004385138396173716,0.4435876905918121,0.5508466362953186
32,36,0.4657467149047582,6.053327797144685,3.464240530038417,7.12946493877098e-05,0.7949823141098022,0.2048474699258805
33,37,0.3393082023618898,2.673063347591168,0.5999511303107474,0.02984679862856865,0.7667918801307678,0.1946249008178711
34,38,0.5235458906212669,11.690183322500625,5.810614771847493,0.0035736351273953915,0.7726074457168579,0.22284089028835294
35,39,0.3882103391365037,1.0820320066983322,0.2993580481759691,0.0004822219198103994,0.7063441872596741,0.2930184602737427
36,40,0.2926289531152285,4.196828246638853,1.912198883458761,0.0007488905102945862,0.9233878850936892,0.06519082933664322
37,41,0.6320381227486901,4.990195112187509,2.5187132467614686,0.9914753437042236,0.0005224256892688572,0.008002227172255516
38,42,0.3172391173197349,3.933380303043248,1.6300801329223609,0.010014843195676805,0.7718768119812012,0.21061867475509646
39,43,0.5741118320823795,3.743655100821552,1.3188378359378214,0.04713105782866478,0.6829440593719482,0.2678343653678894
40,44,1.6595501612799928,5.074692948004349,3.542596636686232,0.0004203332355245949,0.3693898916244507,0.6295148730278015
41,46,0.5597583855437017,3.809424065367488,1.4189234828756982,0.37395694851875305,0.4119899868965149,0.20335882902145386
42,47,0.4481260406217999,0.7300846056098822,0.2341900354205028,0.0024509679060429326,0.7491441369056702,0.2443915903568268
43,48,0.4779308472792673,6.0370218303198415,3.0319181961398587,7.572506092401454e-06,0.011532652191817759,0.9884595274925232
44,49,0.771813329059587,3.3159167638452702,1.4713551400666247,0.24921998381614685,0.5560653805732727,0.12984715402126312
45,50,0.38332400665388455,5.122685653206761,2.156129134373796,4.751695087179542e-05,0.9753613471984864,0.024562602862715718
46,51,1.5847840823407309,79.42671419118422,250.83095528355872,0.015170439146459103,0.6945317983627319,0.25461983680725103
47,52,1.1173840503550676,6.315419801993574,2.1808639350624115,0.011077930219471456,0.6375583410263062,0.3492943346500397
48,53,0.4081794694190535,6.309261050090046,2.8961164036899203,0.003299177624285221,0.12799364328384402,0.8683443665504456
49,54,0.4277529981739977,6.554320710514372,3.8929421835578535,0.0009354237117804588,0.5605278611183167,0.4370169937610626
50,55,0.1993023382529436,4.216015609171807,1.5224124481930457,0.00012438185513019562,0.257749617099762,0.7420517802238464
51,56,0.4340918011360183,2.0638483890785917,0.601048321984674,5.076386866420535e-09,0.000306082860333845,0.9996939897537231
52,58,0.8739176162430986,5.396222021220274,2.6805812192930167,0.0029497763607650995,0.8191741704940796,0.17625753581523895
53,59,0.36294072333441774,2.5386623134869417,0.6406295693767318,0.0004977303906343877,0.030371729284524918,0.969104826450348
54,60,0.4804496754959684,6.594067983176742,3.990609782207798,0.004946231376379728,0.7699476480484009,0.2245251685380936
55,61,0.5848491959368188,4.304169563994016,1.8560111879895285,0.04326624423265457,0.10312159359455107,0.8532712459564209
56,62,0.3882968382841167,3.6320627029902353,1.3841549272884652,0.03119223192334175,0.1175224632024765,0.03992297127842903
57,63,0.5425813121201662,5.035398622770326,2.334466338571288,3.8787542067098e-09,0.0003888167266268283,0.99961119890213
58,64,0.27183982691536274,3.0740216599867547,0.6517400709179181,0.01973889209330082,0.8882120847702026,0.07936760038137436
59,65,0.6443131732741589,3.902879087224953,1.7630668894164048,0.00023763530771248043,0.4045808017253876,0.594989001750946
60,66,0.5164943653961408,3.5465298391189912,1.3636208909271816,0.001280742813833058,0.17309404909610748,0.8255329132080078
61,67,0.7829487890926471,3.9784060778094825,1.7590762736678118,0.0002621905296109617,0.8923715949058533,0.10245407372713088
62,68,0.6654705940840365,2.8668491069483326,1.2019559010897858,0.00032496245694346726,0.8207316398620605,0.17807146906852722
63,69,0.406090071080564,5.130811972453769,2.2227545677554845,0.009670338593423368,0.7879640460014343,0.1527693122625351
64,70,0.6356640898063494,3.05080715930955,1.279627467755304,0.002599366940557957,0.27001988887786865,0.7266640663146973
65,71,0.3516144453355196,6.7727983751174525,3.8329567473244106,7.658073445782065e-05,0.9699029326438904,0.029322640970349312
66,72,0.5341603466610253,3.9440353224119176,1.416232656487157,0.001059914124198258,0.31308767199516296,0.6852865815162659
67,73,0.6263317710858063,4.484174729329337,1.8620637328029759,0.001208013971336186,0.4751603603363037,0.5228720903396606
68,74,0.7891492338484688,5.928760536448446,3.623625345740425,0.0650065690279007,0.6497406363487244,0.28255394101142883
69,75,0.4419692568125127,5.774348833569436,2.8887868135145403,0.018429353833198547,0.2611660361289978,0.7180238366127014
70,76,0.22998057247352505,3.0365857753185828,0.8285803116062017,0.0009073368855752053,0.7832449078559875,0.2145213782787323
71,77,0.2915945891568588,3.9507862757034684,1.663438229531378,0.0002009763556998223,0.9140775799751282,0.08523774892091751
72,78,0.5490342211342679,4.994516018064066,2.319212297008399,0.009733815677464008,0.33529460430145264,0.6521166563034058
73,79,0.4454158088776447,2.3212863407452087,0.6428484756339378,0.001131946686655283,0.05268925428390503,0.9461742639541626
74,80,0.3658443992580492,3.413546482691611,0.9186934167540628,0.000811037898529321,0.8970208764076233,0.09861274808645247
75,81,0.3735141974952069,4.317031542126832,1.809149315166774,0.0016664766008034348,0.9244859218597412,0.07044562697410582
76,82,0.20512466065714136,0.910305615250046,0.054337381049046174,0.016178488731384274,0.6962413787841797,0.2764180302619934
77,83,0.1077102613572184,1.78315054373541,0.4370818424329028,0.0038399675395339727,0.4915148615837097,0.5044679045677185
78,84,0.2923949633029821,3.4820279784432056,1.4300848988980803,0.008481931872665882,0.8888192176818848,0.09839706867933272
79,85,0.4182673706543879,1.3350461193276952,0.3301933648619529,0.003084209049120545,0.7427917122840881,0.17284734547138214
80,86,0.3726600041818509,7.146179203204969,4.919330188772906,8.795466419542208e-05,0.9267486333847046,0.06797057390213013
81,87,0.3823259061768136,6.986060010726955,4.358816220523308,0.7764907479286194,0.06377040594816208,0.10531701147556304
82,88,0.4214212644176393,3.294751113318325,0.9707377871138244,0.08992529660463333,0.5224695801734924,0.2091977447271347
83,89,0.07723557233616125,4.257792940407408,1.3049890121816816,0.15856878459453586,0.4612732827663422,0.34265291690826416
84,90,0.5020036303385403,2.8543960318807344,1.0384545914302383,0.019968753680586808,0.2821974754333496,0.6966484189033508
85,91,0.37336894077639177,3.7626142161385916,1.275820005975,0.005680565722286701,0.5811495780944824,0.3985422551631928
86,92,0.6945441244964298,3.1177249055301166,1.2454674396112382,0.002069318201392889,0.6124087572097778,0.38200604915618896
87,93,0.5988193459522644,0.9966135457656689,0.44657339352235503,0.00011494449427118524,0.979532778263092,0.01949817128479481
88,94,0.705128600625198,6.879342433118178,4.50145633566487,0.5878924727439879,0.2269987165927887,0.16303183138370514
89,95,0.5876874119898469,2.2445363129553053,0.7746425089492656,0.000253971666097641,0.9570602178573608,0.042409833520650864
90,96,0.6030557181074601,3.4973634859163325,1.5250408742359969,0.0023798118345439434,0.9037517309188844,0.08986586332321167
91,98,0.27849105834562343,5.025389920576215,1.6975158548402849,0.0014065479626879096,0.6394790410995483,0.3580531179904938
92,99,0.4024377112997208,0.9258404148138208,0.21742496979286904,0.2618485689163208,0.4859400987625122,0.2482151389122009
93,100,0.5090330314184196,4.354478308706713,2.0417238013498893,0.0006649995921179652,0.3924775123596192,0.6066725254058838
