,event id,width,length,azwidth,p_spot,p_track,p_worm
0,1,0.39543734763147415,11.61296613053362,63.07912131310264,2.7002366550732404e-05,0.9874796271324158,0.011978613212704659
1,2,0.2803566784220344,5.4445776275197515,13.193992706106188,0.008765598759055138,0.7205889225006104,0.264354020357132
2,3,0.35254053726491674,5.689432405063442,15.862351852552473,3.492282485240139e-05,0.9925503730773926,0.007373742759227754
3,4,0.5579424569407614,9.511599279352843,42.169667027425945,0.03006793186068535,0.24836452305316925,0.7197930216789246
4,5,0.6200566720757259,13.966460985199635,95.25670241678677,0.35314127802848816,0.2650683522224426,0.376969575881958
5,6,0.0917648620592756,3.744008020296053,6.1297835351637575,0.0013036049203947186,0.8164581060409546,0.1820296347141266
6,7,0.1680933188538722,6.146828502316812,17.714346865675843,4.76268760394305e-05,0.9863720536231996,0.013086535967886448
7,8,0.5933325061957923,5.858840253400293,15.893858179745257,0.0002950485795736313,0.2219793200492859,0.7775263786315918
8,9,0.3404244500648401,1.8333460691430232,1.7189878023242833,0.0004306552873458713,0.9646369218826294,0.021644799038767808
9,10,0.5462144542890032,7.189807523192957,24.161629387225066,4.232661376590841e-05,0.9340927600860596,0.06565729528665543
10,11,0.3931275193335527,10.86143383096342,54.318619229278404,0.0006513926200568676,0.9483195543289183,0.04826821014285088
11,12,0.3123096386401681,11.888182403353555,63.39361714257048,4.952091330778785e-05,0.98932284116745,0.010423313826322556
12,13,0.4284474430403294,12.264426738601479,69.11958952014636,0.00032197264954447746,0.9580119252204896,0.04097858443856239
13,14,0.375986273074616,12.308011472045374,70.57622841151611,6.944195047253743e-05,0.98567396402359,0.013912802562117577
14,15,0.39313354659726096,4.198535800915152,7.715800112669468,0.00043199528590776026,0.9608079791069032,0.03601975366473198
15,16,0.6239369029995157,12.037935126398466,67.7944503053655,0.004263219423592091,0.19027115404605865,0.8045977354049683
16,17,0.8614115604148228,5.6837890185107645,17.573991447603785,0.1691579818725586,0.4106786847114563,0.4182612001895905
17,19,0.14036228295688122,8.8833064860954,36.871634452944534,0.008225194178521633,0.9141553640365601,0.06367271393537521
18,20,0.424163222927014,10.760902888314257,55.105735968822785,0.0004985851119272411,0.971856415271759,0.021515535190701485
19,21,0.7797325922113568,9.08163621691327,37.221707031941705,0.00037019429146312177,0.9687166810035706,0.030716896057128906
20,22,0.7010722319488263,5.7496953881239925,15.399626762619407,0.005509709473699331,0.30442991852760315,0.6869957447052002
21,23,0.3812525234591984,8.582397442211866,35.1791555167154,0.0011304209474474196,0.25047463178634644,0.7482975125312805
22,24,0.276998923857859,14.451340905932,96.48670518711852,0.0026289494708180428,0.9244914650917052,0.06626305729150772
23,25,1.5269344268798115,595.7858455159422,89596.54868474408,0.0002997355768457055,0.949307918548584,0.04975169152021408
24,26,0.528968242671353,14.782519072928569,102.49212115753792,8.44562819111161e-05,0.9685307145118712,0.03136663138866425
25,27,0.06398400701901995,17.966882131804226,153.1993668918797,0.0020140658598393197,0.8450947403907776,0.15052272379398346
26,28,0.4673680011972097,6.467508060156063,19.171249020907048,0.1418115794658661,0.5435107946395874,0.20421192049980166
27,29,0.2960476943238631,8.219088845640803,30.911586803469586,1.499745121691376e-05,0.9909511804580688,0.008991424925625324
28,31,0.15048945743064113,11.919024417053896,63.29576777696729,0.0002922895655501634,0.9729657173156738,0.026506580412387848
29,32,0.2766580363270761,10.496058836360676,49.28782417729615,0.039926212280988686,0.7951698899269104,0.07630755007266997
30,33,0.4403591984557947,7.465874856463577,25.51307324750333,4.360218008514494e-05,0.9885834455490112,0.011261372826993464
31,34,0.39681031317567583,3.243773965063588,4.36322939082187,6.372034022206207e-06,0.995550274848938,0.004338681232184172
32,35,0.2947391115323123,16.139961556383913,118.52232088639065,0.00013222527923062444,0.936541736125946,0.06262938678264618
33,36,0.3887254709449979,11.44135670807186,61.266721552986795,0.0008038880187086763,0.9491291046142578,0.042256694287061684
34,37,0.5252390110913046,15.371997091748336,110.28965166743208,5.406407581176609e-06,0.9966193437576294,0.003352637402713299
35,38,0.3360942751046322,11.986121455631102,65.07195228871888,0.0007264598389156162,0.939314067363739,0.0581992082297802
36,39,0.3585218380106518,2.352405583225176,2.4544296995045896,0.00012658107152674347,0.9837004542350768,0.016111675649881363
37,40,0.4352226736863484,11.604008728992454,62.09186178082429,0.004926955327391625,0.6961904168128967,0.29270365834236145
38,41,0.7194903063874273,13.095374540704016,79.89575314805636,0.00010490570275578648,0.9876751899719238,0.011909648776054379
39,42,0.3510150837782404,8.563866939604184,33.41474997326129,0.00012134326971136035,0.9822462797164916,0.016204126179218292
40,43,0.16354049557473188,3.438019627741689,5.2734490567993655,0.0002843135152943433,0.5780497789382935,0.4215812683105469
41,44,0.3530301785185162,10.654323783710524,54.52480023609683,8.473014895571397e-05,0.980044424533844,0.011949846521019936
42,45,0.3670126003530389,13.782345734518184,89.90840531142273,7.083049422362818e-05,0.9857258796691896,0.014036173932254314
43,46,0.3999205119463806,1.4810887626122409,1.043619296062665,0.013181689195334913,0.90953266620636,0.05813563242554665
44,48,0.5968327477936345,9.079926723845114,37.82482431554103,1.4883878066029865e-05,0.9949740171432496,0.004999017808586359
45,49,0.42688530216300336,11.355024560182887,60.341887691796025,0.0017625659238547087,0.9648288488388062,0.03192570433020592
46,50,0.3853591722589391,13.948294414516733,95.50126607326021,0.0757562518119812,0.6474583745002747,0.19759045541286469
47,51,0.6550044850782973,10.993047084808977,54.08183124728654,0.003820261219516397,0.4350858330726624,0.5606693029403687
48,52,0.6014633049044497,5.3558096927197285,13.584211945139645,0.00621033925563097,0.8039394617080688,0.1855468451976776
49,53,0.2811349488581191,7.920871102354157,29.41973882116364,0.26681557297706604,0.4681772589683533,0.19680523872375488
50,54,0.3693184335113653,10.348147393727166,50.113056883788644,0.00039126584306359286,0.3502881824970245,0.649257481098175
51,55,0.4310788176715894,9.54759912280873,41.8240534529009,0.004114363342523575,0.3511335551738739,0.6422923803329468
52,56,0.13802403159989188,8.300771247710657,30.522838641611987,0.0039272746071219436,0.9226447939872742,0.05930010974407196
53,57,0.2911786273883121,4.6073018184922665,10.309965736114867,0.016286164522171017,0.8514994978904724,0.12906229496002194
54,58,0.5359592092264092,8.119340798790963,31.33600913026161,0.014451269991695881,0.7768577337265015,0.1763182431459427
55,59,0.3773829517385567,10.320048676090773,50.359187266876795,0.004076431971043347,0.9023891091346741,0.09285462647676468
56,60,9.06507149947171e-06,2.0545018735524936,1.6532552156944242,2.604693509056233e-05,0.9880501627922058,0.011220643296837808
57,61,3.19479602003661,55.675464573013656,336.93646308222196,0.00013998773647472262,0.9297524690628052,0.07003985345363617
58,62,0.2590892783041415,5.443847818845353,13.535305369904902,0.021573644131422043,0.8033044338226318,0.16540390253067014
59,63,0.3160177264876512,1.2541792477798108,0.5994471467142665,0.003574142698198557,0.953668475151062,0.041707273572683334
60,64,0.7468060060574382,14.540038458304998,102.24227830072884,0.0002055497461697087,0.6374063491821289,0.35836508870124817
61,65,0.14304849009109888,13.371599196078115,82.23418196494305,4.889654519502074e-05,0.9957008957862854,0.004063904285430908
62,66,0.4202365135793052,7.264168661572405,26.103303285609172,0.3290567398071289,0.4824007749557495,0.1874772161245346
63,67,0.4570045030263604,11.075022281340296,57.61843448527584,0.9597730040550232,0.008114256896078588,0.0319388248026371
64,68,0.7745347264339415,8.502494572364828,34.66249249989599,0.04196884110569954,0.5685298442840576,0.12241175770759585
65,69,0.4025327055791422,2.5691545975072594,3.032642704358933,0.00020690483506768942,0.9699572324752808,0.029664035886526108
66,71,0.5609760159105648,15.97944672210196,117.70792652301355,0.00010088294948218392,0.93741637468338,0.061948243528604514
67,72,0.5443152237249145,8.745332689406593,35.65465345330531,0.002254613908007741,0.05650585144758225,0.9410953521728516
68,73,0.4304147145297541,12.681480041876881,75.30247218768912,0.0003901509626302868,0.9689618349075316,0.02900122664868832
69,74,0.7943873132603584,8.38838500567239,34.319489884703096,0.007636379450559615,0.7858272790908813,0.09030923992395401
70,75,0.3650342855665073,5.550376341225993,14.16540232819774,0.005901029799133539,0.9669219851493835,0.02610625885426998
71,76,0.35948405710014397,9.699787212254604,43.144793234915674,0.0013618046650663018,0.8669826984405518,0.1274385303258896
72,77,0.6593683866090719,9.020277773898515,38.41410047164294,0.0230656024068594,0.7262364625930786,0.2053142786026001
73,78,0.9804269976747484,11.853699031844954,70.68717001315792,0.04430191963911057,0.247285544872284,0.7078066468238831
74,79,0.3743358603091753,20.840717616422765,206.21119712953987,0.00047347747022286063,0.9547958374023438,0.04275314509868622
75,80,0.33215480801785946,7.5677217591527235,24.734962760929037,0.00015230011194944382,0.9669592976570128,0.03282433748245238
76,81,30.24354055581636,49.74576437041046,922.3874745682583,0.0007754527614451945,0.5103809833526611,0.4885832965373993
77,82,0.4542180895712045,6.612612622286183,20.187642190808408,0.980111300945282,0.0021858750842511654,0.017692379653453827
78,83,0.37021741749845255,16.42481156793767,126.47306903242132,0.003034847555682063,0.9420264363288879,0.04608676210045815
79,84,0.2760546193644993,11.27267689453993,56.49522110307446,0.0018507984932512047,0.9162353873252868,0.06422275304794313
80,85,0.3930201784613624,10.0177644936729,47.864730794852704,0.00029051469755358994,0.06749571114778519,0.932205319404602
81,86,0.4728292262432324,5.178551029639631,12.91716446116235,0.00031198232318274677,0.9635745286941528,0.03609371930360794
82,87,0.3417671372271635,13.129620572835465,79.43882669629956,0.00030690280254930263,0.954093098640442,0.044487543404102325
83,88,0.5630127712355305,5.805723063821576,15.148000957143777,0.006500112824141979,0.8410375714302063,0.1510731428861618
84,89,1.0789593218788871e-05,0.4982243277871522,0.15652051328183172,0.006097618490457535,0.7648062109947205,0.2200158983469009
85,90,0.3551196226847413,8.882021966955808,36.35909295643522,0.0010483905207365751,0.9220977425575256,0.07676297426223755
86,92,0.6436615442453749,7.2745740834713075,24.7553739878184,2.525401214370504e-05,0.9913510084152222,0.008531220257282257
87,93,0.0679647829156534,10.583180301312382,53.24048539845286,0.0006538282032124697,0.28954148292541504,0.7095718979835509
88,94,0.9554756548104608,7.268829392018848,26.166830536926184,0.001168183283880353,0.9637756943702698,0.032330650836229324
89,95,0.3591046861169219,6.782514707472589,22.52468453584063,0.10247177630662918,0.8007626533508301,0.08349216729402542
90,96,0.1665785078856246,3.5335425454035057,6.186214501314526,0.018216408789157867,0.5922581553459167,0.16491234302520752
91,97,0.471384907339015,10.905830349794583,54.623475087388755,0.003408820368349552,0.2225855588912964,0.7735805511474609
92,98,0.4616942279489614,19.29865288073973,169.5652731588859,0.001805380336008966,0.9151998162269592,0.06167147308588027
93,99,0.6347366177179018,8.279623664744188,32.573599269085804,0.0006794684450142086,0.019892921671271324,0.9794228672981262
94,100,0.5092027703615307,9.526700694741235,41.53169022871153,0.02520381659269333,0.4535395801067352,0.1302158534526825
