,event id,width,length,azwidth,p_spot,p_track,p_worm
0,1,0.4588177979193431,4.875699538128275,8.677081077835581,0.0017954375362023711,0.8751291036605835,0.1017068773508072
1,2,0.572456860091219,12.891133643246615,61.62761286937457,0.04467817395925522,0.09726304560899733,0.8545935153961182
2,5,0.4981878104223153,9.610250792329776,32.66362484430694,0.005949824582785368,0.9089343547821044,0.07866905629634857
3,6,0.8094268496100333,5.336455785048148,10.460156364574884,0.00391785055398941,0.7951235771179199,0.0959681198000908
4,7,0.780570284908044,11.057764263990594,44.96493438262617,0.3778843879699707,0.4496099352836609,0.16290801763534546
5,8,4.7569999201500615,6.9118274749582005,30.290749234042128,0.012028511613607408,0.0428667850792408,0.9442188143730164
6,9,0.4977531860752308,3.984019816981181,6.082751495040357,2.7824653443531126e-05,0.009372297674417496,0.9905989766120912
7,10,0.42247566108973095,18.780729499302467,124.15560401909048,0.00011763208021875471,0.06323505938053131,0.9365631341934204
8,11,0.4772511357419833,14.547254337419277,76.33465100178994,0.011013541370630264,0.8555020093917847,0.13260981440544128
9,12,0.5287697998824701,10.864475938021867,45.10488142368651,0.4225864410400391,0.37582117319107056,0.16213053464889526
10,13,0.4880428115418097,13.050068031310124,58.58112357132103,0.00013706805475521827,0.9626879692077636,0.031026558950543407
11,14,0.39995482639235386,4.344479980899735,6.20060308970915,0.002611228032037616,0.7374606132507324,0.16522517800331116
12,15,0.27487530194711457,6.8735152255438114,16.677263573016244,0.17539310455322266,0.07847299426794052,0.12886789441108704
13,16,0.5209706772607029,3.8564322031299083,5.803835805932133,0.004506163764744997,0.5611960291862488,0.3748587369918823
14,17,0.4971870035630046,14.727439957718875,80.51747616572914,0.0019170213490724566,0.9322234392166138,0.059082135558128364
15,18,0.5350036620393579,11.474586789375985,49.06758766260706,0.003098669229075313,0.426845908164978,0.5657475590705872
16,19,0.6288699540959016,7.5337927424020945,20.55870192383949,0.031959328800439835,0.8532844781875609,0.10507430881261826
17,20,0.4439536727316336,11.085771039531664,43.511395043390436,0.00558089092373848,0.4552710652351379,0.5056857466697693
18,22,0.478440148688199,8.190939472751808,25.207522481911074,1.9262673959019594e-05,0.043860066682100296,0.9560925960540771
19,23,0.5575795539886226,12.066444813738253,52.22793643099972,0.009272512048482895,0.847894012928009,0.1322207897901535
20,24,0.915819120768427,10.729410288197649,41.784166317794686,0.14644023776054382,0.4460524022579193,0.32058805227279663
21,25,0.4757239147025358,17.19674905561231,104.06298809448708,0.005453340243548155,0.8977617025375366,0.09394115954637527
22,26,0.6929708469747398,16.138083400696637,89.05344335350401,2.3207259800983593e-05,0.06615321338176727,0.9336379170417786
23,27,0.32938416324814,7.949360379087166,22.65684252307087,0.8018438220024109,0.002201540395617485,0.1959397792816162
24,28,0.4620967631950061,15.339594241897215,85.96279190868009,0.18544775247573853,0.5019410252571106,0.24952468276023865
25,29,0.3648808896577268,5.5174866550451815,10.295131034815995,0.7365474104881287,0.16465358436107635,0.08412305265665054
26,30,0.6099096351870984,9.313215053184557,31.395307931476086,0.0011898742523044348,0.7974424958229065,0.12226395308971405
27,33,0.6293339210172372,15.899399654485693,90.09358926762407,0.001119292457588017,0.8492809534072876,0.14504128694534302
28,34,0.6530534158916347,5.110311385158626,8.965190786432762,0.006069579161703587,0.05970121920108795,0.055423568934202194
29,35,0.6663784050727869,5.432738573029601,10.587852939957877,0.004884585738182068,0.10144369304180144,0.8932757377624512
30,36,0.4330258304596967,17.266522988869145,107.26151566268044,0.003317271824926138,0.7899866104125977,0.11264694482088088
31,37,0.4711364639465554,2.9295844266638182,3.6308841337765614,0.43001359701156616,0.3686416745185852,0.1989866942167282
32,38,0.3771424444889426,12.319104791193807,55.97180629642865,0.19725824892520905,0.012683743610978128,0.7898750901222229
33,39,0.4349352333147508,11.042472246352633,45.257561685344974,0.00029357711900956934,0.08421631157398224,0.9148948788642884
34,40,0.40805817848076,16.083493535227024,92.18610404321312,0.01157828513532877,0.04859009012579918,0.9397024512290956
35,43,0.5006401658241152,14.527082388462436,76.3589519554212,0.5066518783569336,0.30521798133850103,0.18583256006240845
36,44,4.435299054373521,8.137847769806076,57.42639430646813,0.0154989305883646,0.5678749680519104,0.3525557816028595
37,45,0.7615489044970494,99.21190437152529,4446.059113685323,0.2929680049419403,0.2657674849033356,0.12495487928390504
38,46,0.4982118835716564,9.928767138183806,35.474895818091774,0.08580264449119568,0.7201829552650452,0.15019294619560242
39,47,0.4312184226789642,3.432050533490661,5.052348085634511,0.03284275159239769,0.11120954155921936,0.8158894181251526
40,51,0.6140567006561595,5.763568721669568,12.438044620666005,0.005243493244051932,0.8730372190475464,0.11387192457914352
41,52,0.3601119069679533,11.799330506780839,48.52526182093691,0.005575963295996189,0.4564628303050995,0.047084856778383255
42,53,0.4974090973751727,12.375009300427251,55.89282937700402,0.02306347154080868,0.5064407587051392,0.4695667028427124
43,56,0.6143598829662718,7.159092687591691,18.280477288061075,2.600859716039849e-06,0.0014694684650748964,0.998526930809021
44,57,0.4661882089158876,8.618964146920852,27.685037253893515,0.05204334482550621,0.4167804419994354,0.5282706618309021
45,58,4.498273122902775,9.042861849298587,55.74081560202819,0.038469970226287835,0.2395153641700745,0.6951821446418762
46,59,0.6712869497130495,3.5116480701157213,5.21579428528822,0.01336206402629614,0.4584656357765198,0.09471260756254196
47,60,0.3963895015036069,4.1087255651602765,5.882815011027062,0.014596733264625072,0.2375884056091309,0.14156773686408994
48,61,0.4326855133900833,11.209397072756408,44.44429422341753,0.9667014479637146,0.019465556368231773,0.01368453074246645
49,62,0.4814835386913071,6.7063361117017495,16.381320398014093,0.008630593307316303,0.02831542864441872,0.025302032008767128
50,63,0.4185771513668739,8.300664023035004,26.41173211414099,8.031435572775081e-05,0.0931890904903412,0.9066073298454284
51,64,0.3046235811797661,15.826719491207992,90.75472964287157,0.00028288448811508715,0.9185386896133424,0.06550119817256927
52,65,0.8122750517603939,8.582408111928594,25.013019241638805,0.004754002671688795,0.4496200978755951,0.5077725648880005
53,66,0.8127699505669086,9.352120578910764,32.73090575266959,0.5807271003723145,0.18935100734233856,0.22874364256858826
54,67,0.4812138876681586,9.595759989151773,33.653550902049,0.007191821001470089,0.03731900826096535,0.054711371660232544
55,68,0.2709245701046208,14.85577979866856,74.59594824858145,0.001784496009349823,0.3596383333206177,0.6318243145942688
56,69,0.5308727510764744,7.263144682740397,19.794752967110693,0.0009928987128660085,0.3256387710571289,0.6713677644729614
57,70,0.519255417838204,8.39286231890467,24.940344401728268,8.451000212517101e-06,0.009396656416356564,0.9905907511711121
58,71,0.5563310611700675,6.7484792237785385,16.131584224395148,0.027007868513464928,0.2351706176996231,0.7285285592079163
59,72,0.4244030598184093,9.8462773274142,35.176138759445145,0.2131838351488113,0.033764656633138664,0.07669556885957718
60,73,0.9098776029115704,5.9629357192155705,12.651179194187778,0.08127620071172714,0.4057582914829254,0.40635204315185547
61,74,0.327055900589919,6.941319491357565,17.146861839620087,0.008647182025015354,0.5834836363792419,0.2416765689849853
62,76,0.48132077466711,15.810043814132912,88.05411334117754,0.0427531972527504,0.07323514670133591,0.08981174230575563
63,77,0.5688905223112111,8.660492995761558,26.425416566013,0.8272429108619691,0.08667472004890442,0.08527179062366486
64,78,0.5618826484708925,11.033947273030353,43.680373086134395,0.9967254400253296,0.00024378576199524102,0.003020384116098285
65,79,0.1523800144769499,8.797606638535171,30.3652442780334,0.9421280026435852,0.004994045477360487,0.05285569652915001
66,80,0.5604742086326396,4.799100772450947,9.232370299299687,0.00037625693948939437,0.9535024762153624,0.04174119234085083
67,81,0.8440117637145719,5.568854487033877,8.742747393179767,0.5514383316040039,0.0544857457280159,0.20677419006824493
68,82,0.5539749800832532,8.31135912482891,24.462695871588092,0.003117219777777791,0.21765483915805814,0.7781016230583191
69,83,0.2462676268144246,2.953354619006629,3.3716983033025745,0.005096077919006348,0.6366277933120728,0.3414820432662964
70,84,0.6659590512829093,7.972045243024202,22.801295602893273,0.0022080307826399803,0.542795717716217,0.4515160024166107
71,85,0.5517003605363138,11.779434460341768,49.573585087447995,0.01653170958161354,0.4535097181797028,0.4162333607673645
72,86,0.3723733946153276,5.047791813533757,8.868101880553453,0.003275483381003141,0.4002891778945923,0.5961257219314575
73,87,0.19142441952781847,12.324462820827934,54.919316076208545,0.01053476519882679,0.7011786699295044,0.2814395725727081
74,88,0.4985027421492077,5.208317023245879,9.967235491645363,0.010984833352267742,0.7683594822883606,0.17928119003772736
75,89,0.5804317543772184,9.535200473756714,33.34084482307441,0.2204731106758117,0.474017858505249,0.2812897562980652
76,90,0.4822604724508821,7.88126721496501,22.92959612153041,0.0024427319876849647,0.21074022352695465,0.7809295058250427
77,91,0.8970602044490136,10.507843556868632,37.112210268387365,0.0023995738010853533,0.14092344045639038,0.8561450242996216
78,92,0.4976805270861879,9.789777130229318,36.29350532011035,0.0013434163993224502,0.8426740765571594,0.13719448447227478
79,93,0.424918284079844,3.0046339239418014,3.231424711419514,0.0021627615205943584,0.1659868359565735,0.8293097019195557
80,94,0.8104930388842245,8.213767801286476,23.85073287549123,0.0004650837799999864,0.02423499897122383,0.9752899408340454
81,95,0.3605476373922553,8.04787388086627,23.103120641028053,0.0012461278820410366,0.7594785094261169,0.154543936252594
82,97,0.4813313811226325,11.675960194579694,49.92159580922173,0.17615514993667605,0.4581038951873779,0.3629429638385773
83,99,0.4925071751365474,11.058860595052566,44.196917101405724,0.001819420256651938,0.04648697376251221,0.9507758617401124
84,100,0.6155495481726685,9.859412991103436,35.61684963495116,0.0545843243598938,0.23351263999938965,0.7090786099433899
