,event id,width,length,azwidth,p_spot,p_track,p_worm
0,1,0.5383589670255249,15.448561164420676,93.44938052613077,5.629307997878642e-05,0.9917599558830258,0.0071544027887284764
1,2,0.5130293522047259,6.87229937031469,0.5216957546941353,4.052903022966349e-06,0.986339807510376,0.01346632931381464
2,3,0.6416282731281683,16.23029302114834,55.58218088499136,0.10120723396539688,0.3146417737007141,0.5768172740936279
3,6,0.5532076436610134,11.70669273486816,54.84156401918556,6.667335583188105e-06,0.9623886942863464,0.03749944269657135
4,8,0.5911335235541004,13.725863903639462,35.88518628104857,0.00020102433336433026,0.9775483012199402,0.02168886922299862
5,9,0.6671122994278091,11.441100023991485,16.603186036911232,0.00012436436372809112,0.22565853595733645,0.7741979956626892
6,10,5.821838845047988,8.351305590008215,42.835527038811094,7.756096238153987e-06,0.011836390011012554,0.9881321787834167
7,11,0.6640812913625208,10.0735126255171,0.8900936547971905,1.5018283193057867e-05,0.8699765801429749,0.12997500598430636
8,12,0.6187837438273827,15.166328381786974,184.4485871657821,0.0001399083121214062,0.7804088592529297,0.21939660608768466
9,13,0.6759487721050597,16.602373515652186,137.88430004390895,0.009615028277039528,0.6066332459449768,0.3830544650554657
10,14,0.6309748850665146,15.24588595001595,65.85661281242116,0.008127535693347454,0.9396143555641174,0.04607389494776727
11,16,0.5606502209399197,11.083548504940262,50.95016469517591,7.412336799461627e-06,0.9505897164344788,0.049269624054431915
12,17,0.5000339265354132,14.068522736613884,1.0039311878235044,0.00013400104944594204,0.976787269115448,0.021331677213311195
13,20,0.5661595071356808,13.247078068961804,32.25213796587892,3.6588040529750294e-05,0.8379113674163818,0.16170436143875122
14,22,0.5065198523278261,9.737848041145735,16.611570450424384,5.736288585467265e-05,0.9228736758232116,0.07547537237405777
15,25,0.9934716143769868,18.96586929505115,196.54561834382525,0.022770250216126442,0.015150257386267185,0.96207457780838
16,27,0.6013000827869405,14.811708757004876,25.853704241000074,0.00015996741421986366,0.9725471138954164,0.02609068900346756
17,28,0.611888393170575,15.095081439155646,106.97748340171756,0.008549501188099384,0.7290368676185608,0.2611949443817139
18,30,0.6212533604436307,12.022454467483804,75.67955370631991,6.460666918428615e-05,0.9806349277496338,0.018938440829515457
19,31,0.5291637335347946,12.693735036773825,44.81496562223747,0.007720809429883956,0.96916002035141,0.02040412835776806
20,32,0.5379373346334084,9.117127962157106,39.63411199204974,3.7883978620811827e-06,0.9782836437225342,0.017988694831728942
21,33,0.5988403524851187,13.174812818757081,55.956156143498475,3.4877248253906146e-05,0.8389540910720825,0.1609247773885727
22,34,0.6472149893714968,15.061987165333187,38.651174159937895,0.0007735671242699027,0.12860381603240967,0.8706158995628357
23,36,0.4304696374168096,8.014713288854614,4.268047429254249,6.9718789745820695e-06,0.9965403079986572,0.0033561799209564924
24,37,0.6450627090963371,9.703998416100392,2.912505133791967,3.269036824349314e-05,0.8834189772605896,0.116473488509655
25,38,0.4350235207557869,14.492969934529695,31.5541638800984,0.0027586135547608137,0.962547779083252,0.0323912613093853
26,41,0.6277349325262649,13.513017836474777,104.0485382781756,4.949652429786512e-05,0.8348824977874756,0.16493290662765506
27,43,0.477353638552474,8.348193419282017,29.600295281446005,2.7865823994943643e-06,0.9910609126091005,0.005345276091247797
28,44,0.6167836791379449,7.097988934030122,1.7584310203975282,6.373513315338641e-06,0.9751801490783693,0.02467186935245991
29,45,0.4326783275171591,8.274464111805598,2.51710200360904,3.657486013253219e-05,0.9704632759094238,0.009505303576588629
30,46,1.042479807429737,11.445589838495126,6.433531446557168,0.0004516523622442037,0.13246172666549685,0.8669278621673584
31,47,0.7600504772892711,8.831065184824945,47.38450240730525,0.00026037008501589304,0.7897180914878845,0.20994733273983
32,49,0.5947732985573568,9.25337227735875,7.416363397623142,1.8487005945644335e-05,0.9169236421585084,0.08288596570491791
33,50,0.8313388091042174,15.906817173210039,117.60758772757141,0.3057780563831329,0.010418690741062164,0.6837998628616333
34,52,3.2291620814597537,14.765748151571591,95.33448326280914,0.0005835277261212468,0.1807536780834198,0.8178027868270874
35,53,0.8995067652312811,11.446287136069374,13.81536822335082,9.743573173182084e-05,0.0327996201813221,0.9671022295951844
36,54,0.5745248721877066,13.343360834244773,2.5039716273770334,9.520597814116628e-05,0.9833837747573853,0.015405397862195969
37,56,0.5783900093541796,12.786807197371616,9.170218879883043,0.0024820982944220304,0.9533835053443908,0.04349668696522714
38,59,0.5498673474066671,8.274935653046526,41.37496120666968,3.0280851206043732e-05,0.9361629486083984,0.06369897723197937
39,60,0.4509635428408845,16.682165119341455,133.03001856788978,0.0013771174708381295,0.9792354702949524,0.019192330539226532
40,61,0.6942135142763747,9.423375346944676,11.699905161774796,0.004787856247276068,0.3577333986759186,0.6360570192337036
41,62,0.8457940886537011,2.0907696240432423,2.9136514491233565,-1.0,-1.0,-1.0
42,63,0.7063460103487137,9.094607250373636,0.5676347617343644,5.8244979300070554e-05,0.5398979783058167,0.4599939584732056
43,64,0.6275183448695885,11.041310590549937,31.43618488648715,0.0004196818044874817,0.24045540392398834,0.759069561958313
44,65,0.6908843405482035,9.552526723013463,0.6125477100552409,0.07889761030673981,0.1963947415351868,0.7198163866996765
45,67,1.9167259499858864,4.151064008317635,11.281042229688248,1.254652306670323e-05,0.001121772569604218,0.9988648891448976
46,68,0.5005604652312642,10.43266836504598,0.291478021416666,0.00034183557727374136,0.9256407022476196,0.07128261029720306
47,69,0.6924904897618291,12.307038221942726,61.88283001459123,3.632342850323767e-05,0.018472466617822647,0.9814906120300292
48,71,0.662864447937209,13.061788624824715,37.89396183652772,0.0004809228703379631,0.18721939623355865,0.8122694492340088
49,72,0.5990717428185367,8.296854829864246,3.2400657064599194,2.225864955107681e-05,0.7813645005226135,0.2185526192188263
50,74,0.6333471550161612,9.106308669457814,0.4397737907489573,4.212222120258957e-05,0.21880097687244413,0.781141459941864
51,75,0.5341915896200403,8.603267246920916,28.31217482863479,5.055082874605432e-05,0.9704329967498779,0.029191438108682632
52,76,0.4500734716524776,10.675509778985457,0.7632275523793303,4.0883784095058224e-05,0.7088528275489807,0.2907423675060272
53,78,0.3839991179001678,11.387998914829295,3.800923904033291,0.04697646573185922,0.8627826571464539,0.08932875096797943
54,79,0.6977552200320015,7.947527899595674,1.7557762126605705,1.3428215424937662e-05,0.35616278648376465,0.6438196301460266
55,81,0.5416551006884469,11.573233379638545,32.20248193991138,7.059811196086232e-06,0.965821385383606,0.03410051390528679
56,84,0.6717868952510129,13.181334996808994,46.58360194987103,0.0005120314308442174,0.5299232602119446,0.4693372249603272
57,85,5.394560917316854,492.1305913140171,2830.8331994734967,7.074557652231306e-05,0.7555675506591797,0.24355582892894745
58,86,0.47577455753746,11.30913625620733,31.41675103669361,4.4246720790397376e-05,0.9893538951873779,0.00960197113454342
59,89,0.4932962610893342,12.336005922687182,44.43269813136354,1.2876861546828875e-05,0.9862197637557985,0.01368581596761942
60,91,0.5244216464873558,7.8219032957892765,1.4976953577403358,4.364339838502929e-05,0.9889377355575562,0.010161039419472221
61,92,0.4891890136302975,16.80542302783251,117.20666345020004,0.0001309698127442971,0.9821617603302002,0.016717525199055668
62,94,0.6545810981292839,13.310710498247545,0.4818666764907322,0.002573166508227587,0.4325911402702332,0.5640795230865479
63,95,0.6037929217590924,10.651172693768792,36.27204353099869,9.171619603876024e-05,0.6707215905189514,0.32910868525505066
64,96,0.3106364240412072,13.744127739108961,30.16576569945188,0.00800969637930393,0.8633894324302673,0.12786604464054108
65,97,0.5707208351428221,12.884907399604812,2.690881282336291,2.4000035409699194e-05,0.9399244785308838,0.0598662756383419
66,99,0.7404304559034239,4.5296215636789565,0.9166096232736992,0.00010010929690906778,0.6343255639076233,0.3654946982860565
67,100,0.4490449108161126,12.488995709734347,70.2210412627921,1.3291940376802812e-05,0.9928017854690552,0.0062939710915088645
