,event id,width,length,azwidth,p_spot,p_track,p_worm
0,1,0.6834750469810941,9.524586290567193,26.477440468579157,0.00047424019430764025,0.963135838508606,0.0363880954682827
1,2,0.581963746843425,5.957886869861026,5.9428805622541665,4.846192496188452e-06,0.9955313801765442,0.004456401336938143
2,3,0.5911728903619977,10.563572139373688,41.31970823169581,1.928517121996265e-05,0.9897592067718506,0.010180046781897543
3,4,0.4944703642158446,12.352473252832976,5.188289163714925,6.4635351009201275e-06,0.9973408579826356,0.002652023918926716
4,5,0.5424380865604665,8.37540074427568,46.768317113593376,4.7774712584214285e-05,0.989548921585083,0.010400382801890371
5,6,0.3816407547896971,6.95355777393325,12.5721915230885,3.2740481401560832e-06,0.9965887069702148,0.003404674818739295
6,7,0.495098034593669,12.675595432202165,4.162151626017488,9.983898780774324e-05,0.9526076912879944,0.047257184982299805
7,8,0.5001594575574132,7.3029939591065585,43.34046946057392,1.0415958968224004e-05,0.990652561187744,0.009330006316304209
8,9,0.5229501373280577,7.227427223057687,2.299930580802733,7.264424311870241e-06,0.9984466433525084,0.0015443542506545784
9,11,0.6954934020625074,10.124518717045255,65.67341373860732,6.88324803377327e-07,0.9907389879226683,0.009259173646569252
10,12,0.5933920664437362,10.020697064525713,32.90999667484844,1.2391612472129054e-05,0.904524564743042,0.09545399993658066
11,13,0.5737142633721121,12.699760253985989,28.294740227147546,1.2544502169475887e-05,0.9754908680915833,0.02447282150387764
12,14,0.5674519060126924,11.368113598956802,41.714610485476655,8.481201075483114e-05,0.957716703414917,0.042177971452474594
13,15,3.080030808619292,6.475552319333363,21.021968590483024,1.8935554635390872e-06,0.3843310177326201,0.6156604886054993
14,16,0.6739907908082997,9.31450845651182,69.51989255284953,0.0012743388069793582,0.7198075652122498,0.2788654565811157
15,17,0.5806136619021586,13.489878293828287,1.044408947192195,6.069005848985397e-06,0.9967256784439088,0.0032648539636284113
16,18,0.6478611585680796,5.171297702438765,12.32330339105642,2.9812395951012153e-05,0.9329983592033386,0.06682026386260986
17,19,0.5203694097660632,7.762670190208732,29.302443478857864,6.359053804771975e-05,0.944744348526001,0.05507921800017357
18,20,0.5376148215275676,8.974629096205739,16.49342325179163,8.766549399297219e-06,0.9934727549552916,0.006510371807962656
19,21,0.5096922023428537,10.64494193246066,17.826362399576386,6.03557018621359e-05,0.9739714860916138,0.025940608233213425
20,22,0.5569231441915486,9.046352259205909,45.26334375660251,3.514348645694554e-05,0.9944108128547668,0.005551413167268039
21,23,0.7200916295813149,12.20080322758247,74.75559357048823,0.0017476660432294011,0.2738346755504608,0.7243750691413879
22,24,0.3938252519245272,7.650408278173423,29.29408508571509,9.223585948348044e-06,0.9964495897293092,0.0035376206506043673
23,25,0.5549556983540145,9.10176785472346,22.767279750806022,3.7670200981665396e-05,0.6259872317314148,0.3738633394241333
24,26,0.4377527479824542,7.688897483197801,0.23486440425851665,2.0072482129762648e-06,0.9990915060043336,0.0009052991517819463
25,27,0.4511854666288719,8.93904132677456,53.97729622305399,1.1137901310576126e-05,0.9971129894256592,0.002872432814911008
26,28,0.5782173074698912,8.686574594623456,30.250324720316485,1.2672338016272988e-05,0.9936417937278748,0.006342354230582714
27,29,0.4671994282761164,9.334029505698792,16.18697347148759,1.8505672869650882e-06,0.9949948787689208,0.004935915116220714
28,30,0.5233163137992766,8.694422950361936,44.20347476852323,0.0004440893535502255,0.9414808750152588,0.05802851170301436
29,31,0.5910761613554099,6.998688553531808,37.728018437539326,2.5113113224506387e-06,0.9936727285385132,0.006321838591247797
30,32,1.3968244358114847,10.610642248846414,87.38533757851386,0.00010248014586977659,0.02687498368322849,0.9730221629142758
31,33,0.5138763575910199,8.540528013885055,37.438653531562295,1.138344123319257e-05,0.9857211112976074,0.014246975071728231
32,34,0.8343512770734975,8.31055220232787,3.5096214722189982,1.1134911801491395e-05,0.9421107769012452,0.05787694454193115
33,35,0.5881861746476396,9.144209658555988,75.20028175508624,7.759404070384335e-06,0.9936178922653198,0.0063723577186465255
34,38,0.6904455517887436,6.875831699708656,20.947474592670304,2.3691627575317398e-05,0.9828640222549438,0.017107604071497917
35,39,0.3845169768242143,5.323005588283827,18.19767873815186,2.778198904707096e-06,0.9979946613311768,0.0020007630810141568
36,40,2.2342729467943765,173.20762285285977,868.6690724949083,2.9037464628345333e-06,0.9956256151199341,0.004369551315903664
37,41,0.574340747590029,11.108108886689317,19.92927410086116,3.824097075266764e-05,0.9477015733718872,0.05218590795993805
38,42,0.5110368559257727,8.171342305533694,54.45291825712107,4.531916601990815e-06,0.9902370572090148,0.009749452583491802
39,43,0.6557707525385693,10.325272068754384,19.09220023878828,4.691775757237338e-05,0.8607141375541687,0.13921847939491272
40,44,0.42608214183481397,11.52729723929599,46.52973015077188,7.105651457095519e-05,0.9873766899108888,0.012543505989015102
41,45,0.547076471752109,8.85846273667585,71.36609363951541,3.224289912395761e-06,0.9861977696418762,0.013776795938611029
42,46,0.5342917343994983,13.358831848436134,13.988131484244544,1.5382562196464278e-05,0.9934198260307312,0.006554954685270786
43,49,0.43899285705183744,11.944805328776875,16.517396570601466,3.6135916161583737e-05,0.9955548644065856,0.00439933268353343
44,50,0.807071558260365,6.769314093890928,28.381884529656944,2.198864967795089e-05,0.1957670897245407,0.8042041063308716
45,51,0.5373513111785438,7.0260141018098246,34.140020293762475,6.876097558006222e-08,0.9963394403457642,0.0036601142492145296
46,52,0.6267220423561175,7.028920101936957,40.14836103955816,5.7723091231309826e-06,0.9157655239105223,0.08421546220779419
47,53,2.7430825861310937,25.418936533222872,11.721628462625313,1.3970079635328148e-06,0.9928213953971864,0.007166846189647912
48,54,0.4331015052097231,8.883996091054541,34.81376665791364,1.0562568604655098e-05,0.9979438185691832,0.0020446639973670244
49,55,0.5100747589538005,11.02674362454506,26.12508336065576,2.502428515072097e-06,0.9962531328201294,0.0037411027587950225
50,56,0.466335829591795,8.06601988435883,4.1606213704087525,4.6208248249968175e-07,0.9994699358940125,0.0005279085598886013
51,57,0.7406296831358117,6.050423463540382,18.299989215112504,0.00010683802247513086,0.9431732892990112,0.0567079521715641
52,58,0.6119101605331465,10.404061138645707,53.32814599804357,2.353179661440663e-05,0.9853116273880004,0.014656478539109232
53,61,0.5634536686554112,9.706650449804393,12.468884914818096,1.0389751878392417e-05,0.9950339794158936,0.004954112228006125
54,62,0.5836384514781491,10.77781750929894,27.521908113159558,5.907827926421305e-06,0.9867089986801147,0.013275416567921637
55,63,0.6102772725105821,10.345559517484984,11.006375999883497,6.648159796895925e-06,0.9941850304603576,0.005807228852063418
56,64,0.4412982293812221,8.81868040859635,23.68177603651205,1.0325871699023995e-05,0.9948546886444092,0.0051311678253114215
57,65,0.6837936183342639,5.091676623523006,14.43935845906527,3.8630467315670096e-05,0.9789251089096068,0.0210200697183609
58,66,0.4839909637320179,7.5996044325202465,26.430074130738802,2.961058726214105e-06,0.9962007403373718,0.003795962780714035
59,67,0.7314729977714275,10.386437831133039,33.06859471095142,0.001617284258827567,0.761602520942688,0.2367357611656189
60,68,4.988927610406063,11.14314124042402,26.60874116675963,2.416167444607709e-05,0.08485648781061172,0.91511732339859
61,70,0.703309658688244,10.88591148365018,4.436745787886804,0.001186526147648692,0.9014240503311156,0.09727119654417038
62,71,0.9059511674787858,8.972939713750483,28.25754819526761,3.410872523090802e-05,0.3790793716907501,0.6208857297897339
63,72,0.586405623384604,9.314857597332752,28.12658425064228,0.0008016792125999928,0.9733421206474304,0.02584877610206604
64,74,0.5956735956549074,10.965811012955024,73.10059935098285,3.0703868105774745e-05,0.9835335612297058,0.016424288973212242
65,77,0.3843413943443875,8.656019192644438,1.3411686697968521,4.303005880501587e-06,0.9978086352348328,0.0021863849833607674
66,78,0.6129501389430194,7.620798641131997,42.659524570984146,9.256467819795944e-06,0.9873096346855164,0.01267280988395214
67,80,0.6303241612563361,12.074849125712412,0.9516211789208964,2.109373235725797e-05,0.9239039421081544,0.07603427022695541
68,81,0.5301861667955413,9.321463795885347,7.7950827943092005,1.3073164154775439e-05,0.9858102202415466,0.014171662740409374
69,83,0.4187373095994151,11.148462791336646,20.809355003723965,7.2747534431982785e-06,0.9977468848228456,0.0022395621053874493
70,84,0.858163383493018,6.31240692992049,19.966710873397904,0.0002725553058553487,0.945637047290802,0.05408670380711556
71,85,0.7933594051113902,8.629978476914836,55.49806105222599,0.02450207807123661,0.42336469888687134,0.5520926117897034
72,86,0.5093029621054779,6.762714985646888,22.60333942003111,1.6822570614749562e-05,0.9936205744743348,0.006358370650559664
73,87,0.7521061160723258,8.463644209469892,27.60548634048512,0.0003464508336037397,0.4824431836605072,0.5171962976455688
74,88,0.5015606592305952,8.014617557725513,25.27853673326793,1.0917236977547873e-05,0.9729018807411194,0.027049049735069275
75,89,6.887389276662852,273.6196000118134,288.66908623371614,0.00027456143288873136,0.5411514043807983,0.4584435522556305
76,90,0.6689851537602521,9.701318930465897,42.41918038158343,3.392905637156218e-05,0.95627099275589,0.04368414729833603
77,91,3.685048612286483,7.0884033829769955,13.71644955072392,4.578497136975558e-09,0.0008296010782942176,0.999170422554016
78,92,0.5547683991430543,9.480403256933867,13.034766043444266,9.317320177615328e-07,0.9978501796722412,0.0021486072801053524
79,93,0.6228325869564819,11.212811103585524,9.987084984607648,4.5748361117148315e-06,0.9651105999946594,0.034868158400058746
80,94,0.5380129060543024,6.638821963729013,31.26006833247384,3.168528928654269e-05,0.8933605551719666,0.10656974464654922
81,95,0.4672622851466595,9.756348557804221,3.048187896222359,1.5076968338689767e-05,0.9906553626060486,0.00929410569369793
82,96,0.9603083987203486,10.278078952585648,2.810921530342162,0.02316843904554844,0.07832702994346619,0.8984986543655396
83,97,0.5320050891137494,5.687656190812618,14.473724404096739,1.1479668501124252e-05,0.9878089427947998,0.012173076160252094
84,98,0.6280818542529505,7.687030517945881,28.63793672742441,2.1645619199262e-05,0.7433969378471375,0.2565724849700928
85,99,3.9202219878814826,5.118704192113516,17.188188648077368,2.902176277075341e-07,0.0007172178011387588,0.9992825388908386
86,100,0.565694806316081,10.324055467094917,60.12555428383417,4.204391007078812e-05,0.9549145102500916,0.045024674385786057
