,event id,width,length,azwidth,p_spot,p_track,p_worm
0,1,0.2759697694956601,7.316784170347207,7.862479045388802,9.388309990754351e-06,0.8842836022377014,0.11550150066614152
1,2,0.4330680863463559,5.864573113220582,5.703656593489659,0.009416260756552221,0.4869375228881836,0.4949625134468079
2,3,0.4483613007355064,4.401509179565704,2.7740868370881344,3.088329322054051e-05,0.30818143486976624,0.6917586326599121
3,4,0.38990398186387976,2.066019859981149,0.7493357350932611,1.4514072972815484e-05,0.9558155536651612,0.04382311925292015
4,5,0.3406442393203601,1.4063725899824364,0.31734189844164784,0.00016670304466970265,0.7578723430633545,0.2418320178985596
5,6,0.2725762298035788,6.122709028022685,6.142276004301162,9.587735985405743e-05,0.8332759141921997,0.1654735952615738
6,7,0.5067658087770901,3.045489536519866,1.6137201056399382,8.082518434093801e-06,0.9899402260780334,0.010011265054345131
7,8,0.6273759167099906,4.282497742603938,3.0806027334092394,5.069561666459777e-05,0.9256078600883484,0.07431440055370331
8,9,0.5301215352150465,2.9124915718579816,1.532477719563177,8.588610216975212e-05,0.93854558467865,0.061003755778074265
9,10,0.22257557792485416,4.115711244208846,2.8848025645012796,0.0003259442455600946,0.8948026895523071,0.10293488949537276
10,12,0.2997840776851906,1.3328404860125629,0.3149381628805709,0.015825072303414345,0.5921206474304199,0.36318877339363104
11,13,0.3693028957634349,6.496334041198144,7.920188865576527,0.0001987315627047792,0.9521551728248596,0.04739699140191078
12,14,0.3435315817699379,3.2990524880016454,1.1631128009425689,0.0002832493337336928,0.7165706753730774,0.2829756438732147
13,15,0.6111055424869296,3.671901747099436,2.196493965749101,0.00041190051706507797,0.8739619851112366,0.1100635901093483
14,16,0.5120208781516965,3.4861455921733504,2.2439410767108683,9.598181804904016e-07,0.9954068660736084,0.004591554403305054
15,17,0.5555926956764791,2.9763370195019005,2.048912530600024,0.00015176714805420488,0.8935078382492065,0.10379890352487564
16,18,0.3741433712865742,4.044256031552556,3.0819283150308165,6.1315945458773075e-06,0.9927729964256288,0.0072059063240885735
17,19,0.3605511540377982,1.91327933171301,0.7874020673889802,1.0692968317016494e-05,0.9802399277687072,0.019214918836951256
18,20,0.5061498007620641,0.8646107993991767,0.2716859998916745,0.00013489789853338152,0.9799330234527588,0.019698318094015118
19,21,0.3563598107785981,7.498410112516117,10.987972700808275,0.001318334136158228,0.8601481914520264,0.1369880437850952
20,22,0.08853648977780723,2.1591348087157565,0.4050169654329797,0.0052043800242245215,0.4306300580501557,0.5579008460044861
21,23,0.4301034659415957,2.0446505201864533,0.7665566076951289,9.801624401006848e-05,0.9531133770942688,0.04608801379799843
22,24,0.41125114758364334,0.5277389257014319,0.17009696319011391,9.304870764026418e-05,0.11021625995635986,0.8896484971046448
23,26,0.3414434471532366,2.6842611067838127,1.1741664332228534,0.0005961742135696112,0.8960520625114441,0.10322199016809464
24,27,0.393950646531224,4.453757819049279,2.9341470507800365,0.002422511577606201,0.808302104473114,0.16639967262744906
25,28,0.35839968669300554,3.7468080347968966,2.056410207486151,6.83253119859728e-06,0.9674404859542848,0.032532040029764175
26,29,0.2162795958198173,2.596971703455292,0.7469103354332535,0.0005569396307691932,0.7519295215606691,0.08370375633239746
27,30,0.7978172571605259,5.582293162970138,4.4599339811835685,4.336610345490044e-06,0.9561885595321656,0.04379892349243164
28,32,0.4948321034795346,2.2766722553215413,1.7648598548906262,0.0011656861752271652,0.5117347240447998,0.4861896634101868
29,33,0.30618691248181723,3.154446833401069,1.2501077601961428,2.9018268833169714e-05,0.006065885536372662,0.9939047694206238
30,34,0.4755699677542862,2.9887264762425687,1.6426285243859382,0.0029312132392078642,0.6682480573654175,0.32131439447402954
31,35,0.3342782499788175,0.5746569049491491,0.11502595909606746,3.860932338284329e-05,0.08929482847452164,0.9106588959693908
32,36,0.4404386898340282,5.0449014378565,4.532604765415232,5.1946695748483755e-05,0.5791189670562744,0.4204643666744232
33,37,0.5108946994216613,0.9731810682883631,0.3629111850639644,0.0013691793428733945,0.852608323097229,0.14301373064517975
34,38,0.4309453787916964,2.733674802273692,1.6412244818670163,0.02491299249231816,0.2921933829784393,0.6425539255142212
35,39,0.36145878867749787,2.1093833600434344,0.8289458725437965,4.297058694646694e-06,0.8734569549560547,0.12653210759162906
36,40,0.3417793439534022,2.9223040002316027,1.2627271064341374,0.015941860154271126,0.9029604196548462,0.0790637657046318
37,41,0.3484619159350549,0.5350672214598309,0.1285520544941272,1.2511405657278376e-05,0.9383565187454224,0.0616026297211647
38,42,0.4317033834785269,4.524716845492684,3.3268194612997632,0.0003775989171117544,0.9301601052284241,0.06583764404058456
39,43,0.3977751376355123,8.543020507433933,11.883284021784382,0.0002751351275946945,0.9174885749816896,0.08201251924037932
40,44,0.4929820703903628,1.7204308903565242,0.685325630790563,0.0011283016065135598,0.8960094451904297,0.09430044144392014
41,45,0.6450979044502478,1.038899953894527,0.4950581750377342,4.205489403830143e-06,0.9401067495346068,0.05924826487898826
42,46,0.4169999070199133,1.1347338323933245,0.33939320584717764,0.0006306662689894438,0.6116082668304443,0.3797693550586701
43,47,0.5058122511212394,2.391459519454572,1.133422050966193,0.00011163106682943182,0.9645472764968872,0.034999094903469086
44,48,0.3832260491759172,5.707137669031683,5.242409006911309,0.05883033201098443,0.4700196385383606,0.4660360217094421
45,49,0.2466370472468903,2.2433712753830966,0.6711774267397252,0.0016521767247468233,0.886036217212677,0.10924982279539107
46,50,0.33991581030433804,3.6804373788085263,2.1812449668467693,2.702058009163011e-05,0.8154422044754028,0.1844887137413025
47,51,0.40310425223948826,2.302095517112781,1.1425615947847736,1.6524707461940125e-05,0.9217287302017212,0.07788784056901933
48,52,0.5687522596797514,3.0301651015109106,1.8672911755724373,5.532241266337224e-05,0.9554947018623352,0.044237997382879264
49,53,0.4116923987411765,7.749374400796639,10.232526912291316,1.9748288195842187e-06,0.9589778780937196,0.04099901765584946
50,54,0.17924255780890466,3.796609157785913,1.871287311621278,5.0259324780199684e-05,0.9203790426254272,0.07851915806531906
51,55,2.2475216456583715,7.558228747386915,53.89922433541872,6.859281711513178e-05,0.27781033515930176,0.7212638258934021
52,56,0.4976019063188951,6.09132030568509,6.399612246322969,0.0001496003387728706,0.3590153455734253,0.6406738758087158
53,57,0.4906814755762439,5.287189792142903,4.644073515020087,0.00016368589422199875,0.9173982739448548,0.0807194784283638
54,58,0.2458003426777444,3.875872127945605,2.1533477283628057,1.4845885409897619e-08,2.0902090909658e-05,0.9999791383743286
55,59,0.37183954874689423,2.060174715639868,0.7881204542410727,0.0006121968617662787,0.8781740069389343,0.10910697281360626
56,60,0.3693276551633594,4.444086310139364,3.216101614132336,4.446413186087739e-06,0.7809190154075623,0.21907338500022888
57,61,0.6946066914110485,5.704550755295454,5.896137102832456,6.582161404367072e-06,0.966948390007019,0.03294966742396355
58,62,0.9729028958255314,2.7292824313195374,2.277165810337116,2.461447184032295e-05,0.946434199810028,0.053497593849897385
59,63,0.29575890323695475,4.2874846113869065,2.4853311473986994,2.0646657503675673e-05,0.9162437319755554,0.08360175043344498
60,64,0.2739438490060421,2.278109580999169,0.9361665004589068,1.581283868290484e-06,0.978327214717865,0.021667610853910446
61,65,0.504916409150275,1.4750497100937152,0.4657753822351176,2.424829108349513e-05,0.002877868944779039,0.9970978498458862
62,66,0.3302275933150132,2.0878131046333106,0.7559972963932998,0.0002670763642527163,0.7335109710693359,0.26585695147514343
63,67,0.30721898466242525,1.8987997445391351,0.6121182413591028,0.0005719915498048067,0.9144104719161988,0.08489005267620088
64,68,0.6234750468508481,5.2902799237987175,5.6166408612493495,0.00476844422519207,0.6251901388168335,0.36916983127594
65,69,0.3147552584805792,1.65774221342148,0.5804733381652325,0.0007984754047356546,0.91226989030838,0.07406166195869446
66,70,0.5939182457282217,3.606385358256276,2.3850452223072645,0.00021444250887725502,0.96192067861557,0.03746379166841507
67,71,0.030704507671280367,5.764435517698102,4.28210259481979,4.8077699830173515e-06,0.8137344121932983,0.1862557977437973
68,72,0.4101865883602137,4.563731440646189,3.5442015872295265,0.000361954647814855,0.9534767270088196,0.04409205913543701
69,73,0.6541173375852362,6.272469549688443,5.269221889376784,0.0003597455215640366,0.8949815034866333,0.10375607013702393
70,74,0.18018321053957767,4.265703723048763,2.9878998011782967,9.093737389775923e-06,0.8763400912284851,0.12353935092687607
71,75,0.3937997795430947,4.944640845886289,4.5513374064680585,2.644340156621184e-06,0.9833311438560486,0.015361955389380457
72,76,0.34058118787440944,3.7556502506971716,1.9045776319583128,5.1767270633718e-05,0.8208684325218201,0.17887230217456818
73,77,0.4263059767936129,2.6540973721728007,1.1167527077331292,0.0009246625122614203,0.8645896315574646,0.09879136085510254
74,78,165.43531234672375,382.8010146862313,66747.17289643749,9.421700815437362e-05,0.6579120755195618,0.3417576551437378
75,79,0.2121702270511981,7.1085021447667165,6.606423179634635,3.1478663004236296e-05,0.9122303128242492,0.08769140392541885
76,80,0.3996502759683967,2.9340345032365733,1.3997882508322714,0.00022156660270411518,0.9602480530738832,0.03804250806570053
77,81,0.5342516146765492,4.59515355177919,4.253864970347997,0.0007038200274109839,0.02546769380569458,0.9737856388092041
78,82,0.4929245070854542,0.6304627399067585,0.253015352385391,0.00014562715659849346,0.5461315512657166,0.4523272812366486
79,83,0.2866473753285744,2.3891430656650656,1.0507517688838874,4.333778633736074e-05,0.931021511554718,0.06870577484369278
80,84,0.2735254306947197,2.3818217021759938,0.7821273702163969,9.308364496973807e-06,0.7318587899208069,0.2680879533290863
81,85,0.5229347000931694,3.6225305649762403,2.4330038069004583,0.0002582407323643565,0.6306967735290527,0.3688351213932037
82,86,0.37471399771142544,6.7112638542360665,7.371485585700103,1.2059206710546276e-05,0.9601340889930724,0.03964245319366455
83,87,0.17788772609544976,5.905539313213147,5.002020751141028,0.01035312470048666,0.9277650117874146,0.05793716758489609
84,88,0.34515027249005564,4.0835717789298585,3.0388831976037802,2.2722681023878977e-05,0.9728052020072936,0.025842946022748947
85,89,0.4342369678142265,4.413961526079597,2.969583576263964,1.1218377949262504e-05,0.8705788850784302,0.12938198447227478
86,90,0.34790422053280085,4.357973549966272,3.0324397907329104,0.0002528379554860294,0.1632198840379715,0.8226441144943237
87,91,0.467245828235391,2.778186427143653,1.268230156109751,1.7076785297831517e-05,0.9301065802574158,0.06975218653678894
88,92,0.1881089114272492,4.195907781731695,2.7057156906595723,4.603965862770565e-06,0.9577183127403259,0.04226882383227348
89,93,0.6964093337446018,2.102902675050495,0.857083422812718,0.00630842475220561,0.7551233172416687,0.228476881980896
90,94,0.531519377963972,1.0550135646774483,0.4229378461150031,2.193120508309221e-06,0.9927921295166016,0.007201205473393202
91,95,0.4553663985623258,4.349603867104417,3.0902287614953567,0.0010429986286908386,0.5145274400711061,0.08409179747104645
92,96,0.5021974698646475,2.47187850119123,0.7994018672419146,0.0008798539056442678,0.9369611144065856,0.061723597347736366
93,97,0.42181573011711615,1.937931686933784,0.8775509294348486,0.007232173811644316,0.6464323997497559,0.34555429220199585
94,98,0.3177645211034728,5.306301246261132,4.848389599948541,2.8549065973493267e-05,0.747317910194397,0.2525947391986847
95,99,0.6284573619495868,3.1167442594262047,1.918255137392979,5.555731331696733e-05,0.9354110360145568,0.053727507591247566
96,100,0.7119371660609725,3.2199856918658862,2.414814813805757,0.012957637198269369,0.8666770458221436,0.11069803684949876
