,event id,width,length,azwidth,p_spot,p_track,p_worm
0,1,0.3402695358391853,5.884307892531044,10.44353209225903,0.000391720881452784,0.9689164161682128,0.022295895963907242
1,2,0.5132232974333898,9.68359656198415,46.075100037543656,3.627043770393357e-05,0.9836028814315796,0.016046848148107532
2,3,0.3396066668522828,13.037526555772601,70.6400531361204,0.00011839677608804776,0.9792429208755492,0.02023965306580067
3,4,5.085866751516936,81.24557916609027,3469.952062014139,9.403532203577923e-06,0.014767213724553585,0.9851741194725036
4,5,0.4859079938939526,18.61599843785137,139.43901148054994,0.0006944233318790793,0.9235001206398008,0.07555115222930907
5,6,0.5894165219546472,23.12436014836059,262.77387588324484,0.00018719311628956348,0.9834589958190918,0.015385616570711138
6,7,0.7418890142955684,9.619933350059632,50.260738579869525,0.0015893167583271859,0.2960413098335266,0.7022875547409058
7,8,0.4116706738433008,17.024636517802264,93.47223146827852,3.823894803645089e-05,0.9943774342536926,0.0053412029519677145
8,9,0.5248429844005061,12.300444570495241,83.06091053649938,0.00021258486958686265,0.948653519153595,0.05072304978966713
9,10,0.426806680070881,5.815362042109343,10.157482343291148,0.0008031780016608536,0.9491783976554872,0.04691487178206444
10,11,0.4495392642089734,8.794521787882173,40.39177560688949,0.0011107731843367221,0.829400897026062,0.1689211279153824
11,12,0.3813926071579621,12.027987295886247,56.9917762180851,0.006703001912683249,0.9091312885284424,0.0674143061041832
12,13,0.3841175544692888,13.725306876301634,113.64751041959595,0.15841707587242124,0.4823881387710571,0.18145741522312164
13,14,0.5540390233941571,19.898090156762496,265.1734814545829,3.343769276398234e-05,0.9928156137466432,0.005114325787872076
14,15,0.5058826662902922,20.80909814712768,72.76183536139949,0.03555675223469733,0.4835264682769776,0.24583230912685394
15,16,0.7458848100344871,14.319833674674015,75.32744498725593,6.811949424445629e-05,0.07004043459892273,0.9298604726791382
16,18,0.7663903512643565,18.80870788787837,210.02902107805352,0.7884119153022766,0.01935236155986786,0.1916867345571518
17,19,0.7111999886137274,15.85297707151622,117.91151671232849,0.07284171134233475,0.1840975880622864,0.7398788332939148
18,20,0.8387574517999348,5.2833257122051,14.29589386927082,0.0010668827453628182,0.21901197731494906,0.7796055674552917
19,21,0.6241292613565657,12.283135585350847,81.27935100743619,0.06923804432153703,0.20611456036567688,0.7177245020866394
20,22,0.5314879430750038,20.18025287110012,133.23712580330587,0.00010814169218065216,0.9921114444732666,0.007662174291908741
21,23,0.5194021870701974,17.789926724022322,136.31188231455326,0.05823371931910515,0.38176286220550537,0.3883854448795319
22,24,0.3410103485242913,7.48341561198474,16.243438232258452,0.0011683281045407055,0.961602509021759,0.03717348352074623
23,25,0.5659580865645276,10.418439176026686,58.94123765918643,0.0009038989082910119,0.9085888862609864,0.0896863043308258
24,26,0.5660200673737273,10.028463695582703,50.302856111908426,0.00011059384269174187,0.8438109159469604,0.15601710975170135
25,27,0.12116989243769324,23.60979651903596,133.90623665127256,0.011940927244722843,0.9152100682258606,0.05650182813405991
26,28,0.3161190589875184,8.155741570592939,49.27746331032888,2.670305548235774e-05,0.9876425266265868,0.009331355802714823
27,29,0.25654573783371604,14.009834911052096,91.18701109867169,8.715311560081318e-05,0.9883553981781006,0.010539923794567585
28,30,0.38800402578026383,24.63450078505453,353.31483422385764,0.0040284176357090465,0.9460821747779846,0.04763026535511017
29,31,0.3852513179918941,11.08978072931258,75.70453877094258,0.006015056278556585,0.8999708890914917,0.06108978763222695
30,32,0.4928089768650106,25.00639951071224,148.21390072332812,1.8539640223025344e-05,0.9914990067481996,0.00841280911117792
31,33,0.6061569362319671,22.69057591746105,201.88259798647275,0.7935940623283386,0.051843807101249695,0.15331684052944186
32,34,0.5423121051098097,12.310453616586175,81.70866309301142,0.0003462668973952532,0.9169295430183412,0.08248692750930786
33,35,0.459901624132525,20.766836669093767,212.26062875183698,9.796964150154964e-05,0.9781925082206726,0.02144283801317215
34,37,0.6208913292289776,12.611149596380114,71.55871847624609,0.006373798940330744,0.3304308354854584,0.030862122774124142
35,38,0.3808942252078146,15.622123067755359,137.45484472756178,0.0004088635614607483,0.8696976900100708,0.12946496903896332
36,39,0.4757908395391383,21.499035079686127,114.14027021786491,0.0011045122519135477,0.9576139450073242,0.04100973531603813
37,40,0.4062772250246154,21.390559622281035,208.08877156569562,7.993915642146021e-05,0.972545564174652,0.021220266819000244
38,41,0.799834207680289,22.017035927510285,280.624564707003,1.992845136555843e-05,0.985350489616394,0.014035699889063835
39,42,0.2338124914881374,15.457826284576994,103.70946500625608,0.4919536113739014,0.05441800877451897,0.4534920752048493
40,43,0.3062269409304824,15.087495915609374,105.14266257839463,0.0031063493806868787,0.8585745096206665,0.05018189549446106
41,44,0.35769168422219216,20.40666259212346,150.2812397556589,0.0965784713625908,0.14600086212158206,0.08103448897600174
42,45,0.09440483258446283,11.817493618649886,28.23729062091659,4.741020529763773e-05,0.9870569109916688,0.012231020256876944
43,46,0.5409803966496901,16.452389951016535,122.08689547747544,0.000905885244719684,0.937703549861908,0.05957219377160072
44,47,0.4420417468853207,10.525275806794752,58.23242257433876,5.050379695603624e-05,0.9697262048721312,0.0296659916639328
45,48,0.5081474271834717,19.898976894197016,198.69792882050768,0.00035492496681399643,0.957800030708313,0.04077700152993202
46,49,0.3700318029445807,3.6077866025647833,7.062832827413857,0.03246752545237541,0.6452398896217346,0.2963421642780304
47,50,0.4313117233906812,18.89084528813509,139.61718723927982,0.0013084843521937724,0.9289771318435668,0.06510594487190248
48,51,0.3113616877207667,18.716933584241012,122.71352543875638,4.073634499945912e-06,0.9970095157623292,0.002949007088318467
49,52,4.78080256740805,323.19825310602937,3618.9276601646807,0.015279383398592472,0.8756465315818787,0.09780782461166382
50,53,0.5900503779675085,19.329272793257566,203.5226113179328,0.0022403325419873,0.6366600394248962,0.3608263731002808
51,54,0.5494115343033655,0.9230545066359004,0.4201282953381905,0.0002936948440037668,0.8862851858139038,0.11296579241752625
52,55,0.2612465603069506,16.676656211420482,151.83865940123798,0.03971265256404877,0.3401461243629456,0.6097906231880188
53,56,0.3020978044265091,13.339075394934113,92.72914408845386,3.145113805658184e-05,0.9931888580322266,0.006558988709002733
54,57,0.4608748081452357,2.8299925480420365,3.3051844767907412,0.0001330264494754374,0.9888147711753844,0.01099387276917696
55,58,0.15579737781193473,2.258418238514389,2.7433468811916835,0.014507132582366468,0.8696849346160889,0.1138807088136673
56,59,0.510550134608542,18.04909818981312,162.97600700635962,0.0003840495483018458,0.9873330593109132,0.012193731963634493
57,60,0.3777465648100229,11.684851250351546,5.631875253655558,0.005439586006104946,0.8330642580986023,0.15548312664031982
58,61,0.6225556498886757,7.99644425150032,38.73420221870162,0.00024699870846234257,0.9573176503181458,0.041810542345047004
59,62,0.2404274039824568,14.091975096513801,84.14325314381941,0.00882697757333517,0.6683773398399353,0.32042521238327026
60,63,0.5589162889616656,9.673807292519085,41.41901380713276,0.0004487161932047457,0.9887058138847352,0.010049150325357914
61,64,0.6189406704828879,10.676585336536544,38.692515821298045,0.00011704985081451014,0.9831699132919312,0.016195299103856087
62,65,0.4135221995630744,11.773541809579267,59.96389236389549,0.01118581648916006,0.4854279458522797,0.5028989911079407
63,66,0.6644784507888803,10.58698310576612,64.30047419782909,0.0009441973525099457,0.960412323474884,0.03795542195439339
64,67,0.6533488089216325,20.65053447517737,135.08058238425474,2.086153835989535e-05,0.1863168478012085,0.813647985458374
65,68,0.5830690376217147,5.256724701312395,6.529564300859585,0.0041052401065826425,0.9432396292686462,0.05241115763783455
66,69,2.317180077351236,5.316497031602204,7.534426193920202,0.0006004120223224162,0.8967233300209045,0.10063682496547699
67,70,1.4770944768541985,10.032948799467425,29.65451976857211,8.58672649428627e-07,0.00022851342509966344,0.99977046251297
68,71,0.13650865141830112,4.455887249910992,7.803099438073492,5.5617720136069676e-06,0.0012966754147782922,0.9986975193023682
69,72,0.770755337747901,8.83038209474637,29.971267086055807,9.563245839672164e-05,0.9862207174301147,0.013413571752607822
70,74,0.5804785238232735,20.07741505260789,169.12262468702386,0.015778139233589172,0.10091296583414078,0.8827923536300659
71,75,0.1903890506183869,19.612636433099567,203.1736422155217,0.025914721190929413,0.2582204043865204,0.11886989325284958
72,76,0.8110167690573401,9.123115031633553,33.143543980478256,0.0029791737906634808,0.6906566023826599,0.30329662561416626
73,77,0.4723206634512325,17.890510066282488,113.29559754328191,0.13971832394599915,0.24871671199798584,0.32689905166625977
74,78,0.6475076862191751,7.493676219611127,20.187511658614167,0.00011007428838638589,0.38781601190567017,0.6120343804359436
75,79,0.4993804999623255,7.375211957536229,34.04411063883212,8.394416909141e-06,0.9942371845245358,0.005688965320587158
76,80,0.41365055521377786,22.111362128538776,200.34862865871966,0.018493358045816415,0.6011596322059631,0.3791648149490357
77,81,0.7912814582462984,6.796896636675303,19.97004557780758,0.0033792403992265463,0.8680383563041687,0.12839847803115845
78,82,0.8648522425965632,13.726173157036536,103.69987078914455,0.0031829273793846373,0.9514259099960328,0.04402104020118714
79,83,5.186862598063256,7.483970585977094,36.71177803961543,0.8704070448875427,0.02101258747279644,0.10830391198396684
80,84,0.5046933781772506,7.513260925031687,7.278596612449943,0.8609539866447449,0.005297512747347355,0.1336556077003479
81,85,0.392331189478014,13.940067636466697,121.60001502825304,2.7483370104164347e-06,0.010820493102073671,0.9891741275787354
82,86,0.5610169537720049,7.161231168380207,16.584030796748195,0.0681009292602539,0.3039955496788025,0.6247739195823669
83,87,0.3691477296028087,25.24861431630362,244.518216656728,0.019884251058101654,0.8955426216125488,0.0784643217921257
84,88,0.4802929694660607,20.262057451070675,206.76867664213142,0.0028837714344263077,0.3433881402015686,0.651771605014801
85,89,0.27281496874373296,4.942539198016914,14.211950843582992,0.9744530320167542,0.003750661388039589,0.005485071334987879
86,90,0.3735475817286856,26.30473201233938,397.5930573757543,0.0013199903769418595,0.8785275220870972,0.05305181071162224
87,91,0.3705773307640571,18.977849477330288,227.61471566340072,0.00010457930329721421,0.9905186295509338,0.009220197796821594
88,92,2.4182229955712087,231.0565383211568,12189.104232241236,0.15173478424549106,0.4421406090259552,0.3161729574203491
89,93,0.4248824869332512,14.195690725919233,78.22245526299375,0.03083133324980736,0.6473363041877747,0.2717990875244141
90,94,0.5355695650440166,16.793176541499022,128.127658438211,0.007315444760024547,0.3744769394397736,0.6161526441574097
91,95,0.3011231870482517,5.225774484109323,13.475340272496345,5.337322363629937e-05,0.9605312943458556,0.038660582154989236
92,96,0.3449843124976954,12.189025858189352,76.83092203279853,9.404820957570337e-06,0.9947639703750608,0.005168850068002939
93,97,0.3984749598944613,9.388863383297894,47.60243149853852,0.0015145983779802918,0.9706357717514038,0.027168497443199158
94,98,0.3632360466505545,20.853326555865493,214.3557004584493,0.00019712591893039644,0.9787464737892152,0.02048860304057598
95,99,0.2860549342481571,21.056247505377826,121.1259307577133,3.935195854865015e-05,0.9916999936103821,0.008176450617611408
96,100,0.8161507276673496,23.27574137737852,253.3478775007647,0.004759979899972677,0.8739919662475586,0.07698102295398712
