,event id,width,length,azwidth,p_spot,p_track,p_worm
0,2,0.3136512812862399,3.3088462792812487,6.533663789469408,0.008494487963616848,0.54654461145401,0.436755508184433
1,3,0.7152450533365368,1.5549375686833522,1.7903883239230538,0.04788069427013397,0.4992265701293945,0.4275532960891724
2,4,0.4619031919598243,0.9596763015253736,0.7248836158233636,0.491285115480423,0.09620143473148346,0.4088820815086365
3,5,0.21570030156911027,2.7887477108699352,4.919169082177556,0.9738613367080688,0.018243342638015747,0.007418484892696142
4,6,0.4969915033426301,3.934045097348286,10.081650805997656,0.009781532920897007,0.14070376753807068,0.8493846654891968
5,7,0.4742536051371054,2.348270781030932,3.5783171481084626,0.0007516491459682584,0.6416890621185303,0.3566439747810364
6,8,1.4586526334193883,77.88930861630188,5527.9468642128295,0.011167064309120178,0.8297320604324341,0.15860621631145475
7,9,0.4642979686606119,0.999701132712788,0.5910818550750293,4.659583225929964e-07,0.00041370635153725743,0.9995858073234558
8,10,0.4460809624665745,1.685914517761271,1.8517048298647487,0.20448853075504306,0.6081916093826294,0.18172277510166168
9,11,0.0,0.4999959848194285,0.15703379472742826,0.2605792284011841,0.3918405473232269,0.34701529145240784
10,12,0.4777693595559023,2.3750146308578453,3.7908810373438286,0.4920930564403534,0.21550410985946647,0.17026318609714508
11,13,0.5804283336695382,3.9048911558060495,10.140501539007234,0.05359014123678208,0.6969952583312988,0.232561856508255
12,14,2.364723139920918,72.26373749955715,162.39942154861075,0.0019802094902843237,0.05960479751229286,0.9357216358184814
13,15,0.3927597653327993,4.007651096479819,10.523797165342794,3.793711016442103e-07,0.0015234260354191065,0.9984752535820008
14,16,0.4945365768082934,2.204114755790654,3.316202882943033,0.0006066421046853065,0.7266987562179565,0.2724869251251221
15,17,0.4524581380996735,1.3713676228434184,1.36610155145719,0.0015930690569803119,0.9315363764762878,0.06650193780660629
16,19,0.957073414348936,35.5109809880132,308.0859844427018,0.11432576179504395,0.6658980846405029,0.21647924184799194
17,20,0.4933617959842882,2.9606277534984486,5.753373936603791,0.02364639937877655,0.7165142297744751,0.2578684389591217
18,22,0.7699864153357929,2.1232792724299814,3.146642919694687,0.0019174596527591348,0.033712681382894516,0.9642435312271118
19,23,0.6619949866477818,2.487930974035459,4.174305449621134,0.021713811904191967,0.10083109140396118,0.8771776556968689
20,24,0.6431766936930615,1.2732604553278275,1.1586310992420643,0.002614772878587246,0.7545189261436462,0.2425576150417328
21,25,0.42703069155193135,1.016530975465838,0.6725841094400336,0.13053198158740995,0.34219110012054443,0.5246686935424805
22,26,0.27286393299642786,2.917697327211405,5.268665710137044,0.06625660508871077,0.4570227265357971,0.4752664566040039
23,27,0.4953700495605804,1.2076502444550812,0.9579570546312696,0.6011531352996826,0.2396280020475388,0.15614616870880127
24,28,0.5879584335751105,3.9559418660218366,10.55144118431816,0.1499234437942505,0.1914178282022476,0.6582319736480713
25,29,0.6667066310801124,2.6423703594567254,4.888094452569279,0.0018521544989198448,0.8526625037193298,0.14459392428398132
26,30,0.490047870995657,1.6086628148548487,1.5676096736794594,0.05682281032204627,0.0969136580824852,0.8460177779197693
27,31,0.4166807420967253,2.552247834555257,4.7802251577483625,9.179017069982365e-05,0.8171511888504028,0.18267087638378146
28,33,0.6020935752222466,4.731779175365257,13.916657169096371,0.003334521781653166,0.41976428031921387,0.5758181214332581
29,35,0.4719190190615583,2.485698960034401,4.2995786706374775,0.9032852649688721,0.06591212004423141,0.02939903736114502
30,36,0.5323890082109487,1.7418623313132042,1.9896622573806968,0.028666194528341293,0.6872719526290894,0.279822438955307
31,37,0.5394866070897808,1.7886819106817902,1.8998923683768976,0.2377973198890686,0.4945771992206574,0.2618697285652161
32,38,0.4808113267497082,1.5784774776174737,1.7302029063425677,0.0010432192357257009,0.10903141647577286,0.8898021578788757
33,39,0.2377374988720625,4.141753647163854,10.48975411415831,0.2156536728143692,0.2968085706233978,0.2627516090869904
34,40,0.5814870801603056,3.0382719228168065,6.201441461709253,0.03819797933101654,0.5270346999168396,0.41701507568359375
35,41,0.4475907324669498,4.55714046116655,13.244199885939386,0.017143117263913155,0.8004111051559448,0.18085059523582456
36,42,1.52587890625e-05,3.727702287862188,8.970635398702742,0.03728996962308884,0.3032373785972595,0.6583594679832458
37,43,0.44122922324398295,2.61110816766679,4.6012988882207,0.2824435830116272,0.5474988222122192,0.1623457670211792
38,44,0.6153872290762628,0.9372191909368608,0.6602070283138117,0.0006856821128167213,0.726177453994751,0.2723369002342224
39,45,0.6489478346948825,3.879580439104689,9.832873203423773,0.002566326875239611,0.49961626529693604,0.4965449869632721
40,46,0.4147187415555397,1.886874528959931,2.307974924980598,0.0002853741170838475,0.7888361811637878,0.2108122557401657
41,47,0.4940426290372911,1.464749591218039,1.4212001044058613,0.08102598041296005,0.3504394590854645,0.5361411571502686
42,48,0.3688857122064138,2.2996712408414446,3.4756857913236687,0.0008227378712035716,0.8819369077682495,0.11706093698740005
43,49,0.5178544778717789,3.7752344828576954,8.781043024223054,0.17680740356445312,0.44494757056236267,0.3702493906021118
44,50,0.6623237750073632,1.2165235952017663,1.042932172197245,0.0004833997227251528,0.06936857104301453,0.9301220774650574
45,51,0.35322005964319564,2.956111057835777,5.568364259072159,0.010759397409856321,0.6708367466926575,0.3180263638496399
46,52,0.3549615140426341,2.323530829340517,3.4461810323989868,0.13377749919891355,0.5581780076026917,0.27646926045417786
47,53,0.4683878590824279,2.690258097636078,4.492974440663002,0.03681237623095512,0.3368224501609802,0.6254091858863831
48,54,0.47284658661613205,2.307376290400684,3.467002835424936,0.00035516524803824723,0.059373851865530014,0.9402546882629396
49,55,0.4516414192307259,2.937430099865742,5.2672912300054335,0.9869053959846495,0.004270654171705246,0.008780363015830517
50,57,0.3027812076026267,5.622729088512127,21.439155556077907,0.0037030070088803772,0.8533880114555359,0.14212508499622345
51,58,0.508446812482672,4.140940341506886,11.269441422084535,0.012968791648745537,0.8387815952301025,0.14578309655189514
52,59,0.4848159095790278,3.4305617949032454,7.625292580236278,0.04592466354370117,0.5609180927276611,0.3881680369377136
53,60,1.8688123647942943e-05,1.2109242664467743,0.9441580336594282,0.021900689229369164,0.7949447035789491,0.17957313358783722
54,61,0.44648628775577337,1.5918470385322296,1.9481952236872049,0.002637386554852128,0.7750719785690308,0.22187994420528406
55,62,0.4982653512235415,1.423338682588145,1.315699502748499,0.027476416900753968,0.8310459852218628,0.14025911688804624
56,63,0.4513667996757175,3.1625589168416544,5.921254015139092,0.009786427021026613,0.19617460668087008,0.7879150509834291
57,64,2.254931822633879,4.497580872990847,19.476105440312253,0.0002134872192982584,0.09943575412034987,0.9003139734268188
58,66,0.4349350366923371,4.3867464867741015,12.167098036327266,0.002172327134758234,0.05505199357867241,0.942724108695984
59,67,0.6080644127419391,1.1547888470965373,1.0024983373180991,0.2528304159641266,0.5951937437057495,0.14602555334568024
60,69,0.4800688207173282,2.375758194743833,3.5917739189042743,0.06434430181980133,0.530448853969574,0.3451223075389862
61,70,0.5780311180084121,1.3816794564950277,1.2198289149218764,0.8527244925498962,0.09617847204208374,0.05067188665270805
62,71,0.4095292541420096,1.4337842548989943,1.5059814126911706,0.0014812293229624633,0.4547199904918671,0.5425226688385011
63,72,0.4247578599116327,2.922648950230063,6.166222994734371,5.972398753328888e-08,0.005863485857844353,0.9941363334655762
64,73,0.35565863309758633,3.3479412439971563,6.17594284545323,0.001922293216921389,0.7133557796478271,0.2829774022102356
65,74,0.4012058959005652,3.580668044884575,7.552693787749512,0.001151656499132514,0.3697819411754608,0.6283797025680542
66,75,4.143769031040484,11.976250844202175,136.260687416299,0.9961328506469728,0.002273767022415996,0.0015720712253823874
67,76,0.3817105968188203,1.1232854816841662,0.7994017704553711,0.2056710571050644,0.3254022896289825,0.4612405002117157
68,77,0.7556564257153109,1.102286899488855,0.8824358568255255,0.17134523391723633,0.6798413991928101,0.1435070037841797
69,78,0.7698834695429315,1.2573207830559887,1.137779195701991,0.3376700580120087,0.3828096091747284,0.2742205560207367
70,79,0.4314367658652297,2.586377152167008,3.8452713438596913,0.03610306978225708,0.8493360877037048,0.11291712522506715
71,81,0.4804277212279871,0.9889774422421682,0.6156863357575505,0.05916886776685715,0.4558198750019074,0.4511820077896118
72,82,0.3978191411806791,3.191269994666944,6.3789628674539625,0.0636562705039978,0.4830120801925659,0.4282907545566559
73,83,0.4689473785580694,2.918189568041701,5.911746311520075,0.00036673463182523847,0.6060388684272766,0.3932366073131561
74,84,0.0,2.950811222022103,5.786767634322415,1.451547493314109e-10,1.8486260159988888e-05,0.99998140335083
75,85,0.7807767194783956,1.5331584839082708,1.734451688379097,0.9385911822319032,0.0404752753674984,0.02054475247859955
76,86,0.5658806345396649,3.7254482853813577,8.934615930180229,0.990259051322937,0.0016530859284102915,0.008073573000729084
77,87,0.3063058431962976,3.0777360514721472,5.728502316838263,0.7787751555442809,0.0753411278128624,0.14448308944702148
78,88,0.3154760434800544,3.159626583965416,5.966495787098602,0.11455685645341873,0.4428040385246277,0.4187185168266296
79,89,0.4813273080066117,2.8250732707922444,5.04857917583447,0.3346331119537353,0.3938579261302948,0.21035735309124
80,90,0.5603385563524793,3.5879787001842534,8.393278868796418,0.016742831096053123,0.3813216984272003,0.589091956615448
81,91,0.4568909157531501,3.132203735653908,6.861732341842285,0.004932537674903871,0.6314376592636108,0.3627167046070099
82,92,0.5032770388573076,5.625347173483557,19.26739149984775,0.015666266903281212,0.7957529425621033,0.18597982823848724
83,94,0.6092809785283422,3.138870273086647,6.155354276227128,0.02890020236372948,0.6090379953384399,0.3463238477706909
84,95,0.5627913055699195,2.3611465474632336,3.7467286928500654,0.9734053611755372,0.008602983318269253,0.017798760905861855
85,96,0.7424544633711685,2.7299678599808104,4.952278425393912,0.0005767012480646372,0.7441992759704591,0.2546643614768982
86,97,0.6558985998080269,2.6517725606234235,4.312354390730049,0.012471725232899187,0.6296516060829163,0.3485041558742523
87,98,0.3186249894321533,1.1465600613493736,0.7006028240864803,0.0006092330440878867,0.8834570050239563,0.11547499895095825
88,99,0.4477505195839618,1.6519488252153272,1.7919133370166078,0.00695840734988451,0.16119328141212466,0.8316159844398499
89,100,0.0,0.7073717772566634,0.3157442082763168,0.0010924739763140678,0.6171528100967407,0.381188690662384
